73
368
660
944
1228
1512
1806
2041
2400
2703
2995
3280
3557
3860
4167
4463
4762
5058
5344
5631
5916
6211
6524
6821
7103
7387
7667
7950
8242
8536
8835
9139
9428
9707
9995
10279
10588
10892
11189
11477
11777
12063
12347
12642
12947
13263
13559
13839
14128
14420
14708
15008
15307
15604
15897
16181
16461
16753
17055
17355
17654
17944
18224
18511
18793
19078
19385
19690
19986
20269
20551
20835
21129
21421
21726
22027
22318
22600
22878
23161
23451
23753
24050
24343
24623
24909
25195
25482
25777
26085
26384
26668
26949
27234
27533
27830
28129
28428
28724
29012
29291
29577
29870
30179
30484
30777
31062
31345
31633
31925
32221
32525
32833
33124
33401
33687
33978
34271
34572
34867
35165
35452
35733
36013
36306
36602
36913
37212
37497
37780
38068
38353
38648
38948
39249
39545
39823
40093
40379
40675
40967
41268
41564
41847
42114
42412
42695
42994
43304
43601
43890
44169
44452
44740
45027
45320
45625
45922
46201
46476
46757
47034
47332
47629
47917
48199
48483
48763
49037
49321
49615
49920
50211
50488
50768
51053
51337
51624
51918
52213
52503
52781
53060
53338
53629
53920
54217
54505
54782
55061
55341
55622
55905
56205
56499
56782
57052
57330
57612
57898
58189
58487
58785
59074
59352
59629
59917
60211
60513
60815
61103
61389
61677
61961
62245
62544
62849
63151
63436
63709
63996
64285
64579
64873
65171
65461
65747
66026
66304
66602
66789
67128
67431
67725
68005
68299
68591
68884
69188
69501
69793
70071
70354
70640
70939
71237
71537
71843
72135
72414
72701
72995
73299
73609
73908
74193
74481
74764
74983
75330
75630
75931
76231
76512
76783
77071
77363
77661
77951
78248
78536
78822
79097
79383
79686
79989
80288
80580
80866
81149
81436
81728
82028
82332
82634
82924
83207
83489
83792
84101
84405
84706
85007
85300
85577
85867
86169
86475
86777
87076
87362
87649
87938
88229
88528
88831
89132
89418
89701
89985
90283
90587
90882
91187
91478
91758
92043
92335
92631
92942
93243
93531
93821
94100
94391
94690
94993
95296
95603
95890
96168
96448
96743
97047
97345
97642
97934
98225
98506
98787
99081
99379
99577
99927
100215
100493
100779
101068
101358
101651
101939
102232
102514
102790
103071
103368
103667
103961
104258
104542
104828
105115
105404
105704
106013
106311
106598
106879
107156
107450
107747
108042
108339
108641
108923
109196
109483
109770
110074
110372
110670
110960
111241
111521
111807
112105
112402
112708
112998
113278
113559
113847
114138
114425
114713
114997
115277
115545
115812
116081
116367
116651
116936
117211
117491
117763
118041
118320
118605
118909
119213
119507
119789
120074
120373
120673
120988
121298
121602
121887
122167
122458
122748
123048
123357
123661
123934
124218
124505
124773
125057
125352
125646
125923
126201
126474
126744
127022
127311
127601
127889
128082
128419
128695
128955
129228
129517
129796
130054
130315
130565
130816
131071
131324
131582
131847
132119
132378
132626
132880
133129
133387
133660
133930
134194
134461
134735
134987
135241
135502
135778
136059
136348
136628
136897
137168
137446
137726
138005
138301
138596
138886
139161
139437
139717
140007
140300
140596
140879
141150
141421
141681
141940
142205
142477
142744
143008
143262
143512
143763
144022
144283
144555
144830
145109
145379
145644
145900
146167
146443
146734
147010
147288
147562
147830
148096
148360
148635
148914
149201
149486
149766
150027
150301
150573
150846
151120
151405
151697
151971
152234
152508
152779
153064
153360
153641
153920
154190
154468
154739
155006
155288
155585
155862
156130
156392
156645
156903
157166
157427
157692
157957
158229
158486
158727
158970
159221
159476
159735
159999
160256
160504
160752
161002
161251
161496
161762
162032
162305
162570
162833
163090
163360
163626
163896
164179
164458
164728
164989
165243
165496
165754
166029
166298
166567
166839
167109
167368
167639
167909
168188
168482
168782
169071
169347
169626
169905
170199
170493
170716
171072
171368
171649
171918
172197
172479
172773
173064
173348
173627
173904
174173
174449
174735
175021
175320
175606
175874
176142
176425
176696
176972
177246
177520
177794
178057
178313
178574
178838
179115
179385
179659
179924
180180
180441
180702
180961
181234
181521
181808
182082
182350
182621
182893
183178
183472
183776
184068
184359
184647
184931
185210
185507
185826
186135
186425
186714
187002
187288
187573
187869
188176
188478
188760
189040
189327
189622
189926
190225
190526
190818
191110
191392
191671
191974
192279
192572
192860
193143
193420
193700
193991
194278
194572
194865
195153
195423
195698
195975
196266
196558
196844
197129
197412
197682
197947
198221
198501
198789
199073
199350
199616
199892
200158
200430
200711
200990
201269
201542
201804
202064
202336
202610
202893
203179
203465
203738
204019
204297
204570
204851
205156
205456
205734
206014
206286
206564
206841
207127
207418
207721
208002
208275
208545
208820
209097
209390
209681
209970
210253
210531
210806
211083
211362
211652
211948
212225
212499
212775
213055
213324
213604
213892
214178
214462
214735
215003
215277
215560
215848
216138
216429
216707
216987
217266
217544
217822
218120
218413
218700
218970
219244
219526
219810
220096
220389
220688
220974
221250
221524
221801
222079
222373
222663
222948
223225
223504
223781
224044
224326
224619
224913
225192
225469
225741
226021
226293
226570
226860
227142
227424
227699
227973
228236
228514
228805
229092
229373
229657
229933
230211
230482
230758
231055
231355
231636
231911
232187
232457
232730
233013
233299
233586
233873
234148
234413
234682
234956
235247
235544
235825
236106
236388
236661
236925
237203
237493
237781
238068
238341
238607
238881
239154
239431
239715
239993
240263
240538
240805
241062
241316
241585
241852
242111
242371
242629
242876
243129
243385
243640
243905
244189
244459
244726
244981
245243
245513
245788
246062
246349
246645
246932
247198
247466
247739
248015
248297
248584
248875
249154
249431
249703
249986
250270
250555
250856
251157
251439
251707
251991
252283
252582
252865
253156
253453
253738
254007
254279
254582
254888
255167
255450
255736
256024
256292
256569
256857
257154
257437
257707
257963
258223
258475
258735
259002
259277
259538
259809
260074
260331
260582
260849
261130
261414
261687
261965
262238
262513
262786
263059
263347
263638
263928
264215
264496
264769
265059
265351
265649
265944
266236
266526
266812
267096
267373
267676
267976
268257
268542
268820
269099
269381
269667
269957
270254
270548
270819
271092
271368
271653
271949
272241
272530
272836
273120
273391
273673
273964
274261
274558
274850
275128
275400
275669
275946
276233
276513
276801
277100
277385
277646
277920
278209
278515
278811
279095
279379
279573
279914
280205
280508
280812
281107
281398
281679
281952
282229
282510
282798
283093
283386
283668
283940
284213
284488
284775
285069
285359
285650
285933
286207
286482
286760
287049
287349
287651
287941
288223
288504
288789
289073
289370
289664
289967
290255
290535
290810
291105
291403
291693
291987
292278
292564
292842
293120
293408
293709
294008
294293
294578
294854
295139
295419
295714
296010
296316
296609
296886
297166
297446
297735
298030
298331
298624
298917
299203
299480
299753
300049
300357
300659
300936
301207
301491
301779
302059
302344
302641
302944
303237
303499
303769
304062
304358
304635
304920
305208
305495
305705
306032
306334
306638
306939
307231
307511
307742
308060
308346
308622
308909
309214
309512
309777
310049
310330
310623
310911
311196
311485
311780
312059
312325
312602
312822
313190
313505
313805
314088
314370
314661
314949
315243
315538
315840
316132
316413
316690
316976
317263
317557
317782
318142
318434
318726
319008
319220
319583
319901
320202
320490
320783
321069
321369
321661
321964
322272
322570
322854
323134
323422
323727
324042
324337
324637
324926
325212
325492
325780
326084
326392
326695
326984
327273
327562
327854
328146
328449
328750
329053
329336
329616
329909
330213
330521
330817
331120
331408
331701
331986
332276
332585
332894
333197
333476
333764
334053
334345
334641
334940
335245
335540
335820
336097
336382
336677
336977
337277
337568
337859
338142
338429
338716
339022
339324
339630
339922
340202
340488
340777
341071
341376
341681
341971
342263
342544
342819
343113
343406
343702
343992
344276
344554
344839
345126
345413
345720
346014
346305
346594
346801
347144
347451
347756
348060
348363
348654
348931
349218
349499
349801
350109
350407
350690
350977
351262
351478
351818
352112
352412
352708
352984
353254
353544
353829
354125
354423
354714
355012
355299
355576
355855
356161
356460
356755
357043
357324
357607
357897
358183
358479
358784
359083
359362
359631
359900
360179
360468
360760
361048
361340
361621
361891
362160
362448
362729
363023
363316
363603
363875
364155
364444
364727
365019
365328
365637
365910
366188
366478
366775
367060
367360
367671
367956
368244
368529
368821
369106
369407
369712
370007
370276
370554
370840
371128
371401
371700
372004
372295
372554
372831
373121
373424
373708
373997
374300
374591
374851
375121
375409
375712
375994
376284
376573
376858
377077
377401
377697
378001
378305
378604
378882
379155
379436
379727
380020
380309
380607
380895
381170
381449
381720
382009
382305
382603
382892
383180
383454
383740
384024
384314
384612
384912
385202
385483
385766
386047
386345
386646
386938
387238
387530
387808
388082
388370
388668
388976
389274
389560
389856
390146
390431
390727
391036
391340
391638
391921
392201
392490
392778
393074
393374
393671
393954
394240
394516
394798
395093
395397
395694
395986
396266
396549
396842
397131
397333
397701
398004
398291
398566
398849
399136
399432
399727
400020
400318
400596
400874
401160
401449
401754
402058
402357
402643
402930
403212
403506
403801
404098
404400
404693
404977
405252
405539
405833
406128
406422
406713
407002
407285
407557
407845
408148
408449
408743
409026
409311
409594
409878
410173
410474
410778
411068
411349
411629
411913
412203
412508
412813
413107
413399
413689
413966
414246
414538
414844
415140
415427
415700
415991
416272
416553
416846
417148
417442
417726
418003
418280
418573
418863
419152
419450
419741
420019
420298
420580
420870
421170
421471
421762
421991
422318
422601
422815
423161
423459
423764
424061
424337
424613
424890
425184
425487
425786
426075
426377
426658
426936
427222
427520
427824
428126
428410
428695
428989
429272
429556
429864
430162
430467
430752
431030
431312
431612
431908
432205
432506
432796
433079
433361
433645
433838
434208
434510
434807
435094
435368
435655
435948
436146
436509
436817
437114
437397
437679
437961
438264
438567
438862
439155
439450
439736
440020
440308
440618
440930
441228
441515
441811
442106
442403
442620
442989
443301
443604
443885
444172
444470
444702
445058
445359
445655
445945
446224
446503
446796
447100
447399
447692
447976
448261
448546
448831
449134
449438
449745
450035
450322
450603
450892
451190
451497
451802
452098
452387
452674
452955
453245
453542
453848
454150
454440
454648
454993
455290
455584
455885
456186
456483
456768
457043
457329
457630
457934
458165
458520
458812
459100
459377
459661
459962
460272
460568
460854
461145
461430
461718
462011
462309
462617
462916
463194
463477
463761
464046
464358
464661
464956
465254
465536
465817
466101
466401
466705
467008
467304
467586
467875
468161
468456
468759
469062
469360
469656
469938
470228
470527
470833
471135
471441
471724
472015
472301
472586
472884
473197
473495
473789
474071
474358
474649
474939
475234
475544
475848
476133
476414
476702
476996
477304
477601
477894
478192
478478
478754
479036
479328
479630
479928
480214
480490
480776
481054
481337
481637
481937
482236
482522
482798
483068
483348
483631
483927
484216
484504
484783
485069
485349
485638
485936
486249
486553
486841
487126
487419
487715
488015
488317
488631
488928
489212
489494
489785
490087
490390
490692
490990
491284
491567
491847
492142
492441
492748
493043
493336
493620
493911
494196
494488
494786
495082
495367
495645
495921
496198
496497
496710
497071
497373
497662
497942
498227
498514
498809
499111
499413
499698
499984
500264
500546
500842
501142
501445
501742
502035
502312
502598
502885
503187
503493
503791
504077
504368
504651
504932
505224
505525
505826
506122
506395
506676
506965
507253
507550
507852
508155
508452
508741
509016
509315
509620
509921
510218
510516
510801
511090
511368
511656
511967
512274
512565
512848
513131
513421
513716
514011
514314
514624
514916
515191
515472
515758
516062
516369
516664
516967
517263
517550
517829
518122
518423
518730
519025
519305
519590
519879
520146
520460
520765
520979
521339
521625
521909
522205
522508
522812
523113
523413
523704
523996
524277
524573
524887
525195
525489
525777
526061
526353
526643
526938
527240
527545
527835
528115
528399
528686
528989
529290
529596
529893
530188
530468
530758
531054
531355
531665
531964
532254
532541
532825
533118
533412
533716
534010
534304
534588
534870
535158
535456
535764
536063
536361
536642
536927
537208
537502
537807
538110
538418
538704
538990
539275
539572
539869
540169
540469
540765
541048
541331
541613
541912
542222
542526
542822
543113
543404
543685
543980
544283
544587
544892
545179
545452
545738
546019
546303
546596
546793
547196
547478
547755
548029
548330
548629
548923
549214
549498
549781
550066
550346
550635
550948
551250
551529
551811
552093
552382
552677
552972
553278
553585
553873
554151
554435
554720
555023
555321
555610
555910
556200
556483
556763
557053
557357
557664
557959
558235
558522
558810
559099
559393
559692
559994
560291
560573
560844
561138
561431
561728
562016
562305
562588
562809
563138
563420
563727
564027
564317
564598
564879
565160
565450
565738
566037
566256
566613
566896
567181
567376
567718
568024
568323
568621
568916
569201
569479
569759
570055
570363
570665
570954
571243
571535
571828
572119
572424
572727
573037
573325
573605
573889
574190
574426
574782
575091
575383
575675
575955
576245
576547
576859
577160
577453
577737
578021
578307
578596
578897
579201
579445
579787
580070
580354
580645
580945
581243
581539
581831
582116
582392
582665
582916
583235
583536
583819
584094
584360
584632
584900
585172
585452
585728
586008
586273
586522
586768
587028
587296
587569
587840
588110
588374
588640
588903
589174
589451
589744
590038
590314
590585
590861
591141
591414
591704
591996
592285
592569
592851
593065
593384
593680
593988
594276
594560
594852
595123
595399
595687
595989
596275
596581
596876
597133
597399
597667
597922
598183
598455
598709
598966
599219
599465
599700
599949
600211
600480
600735
601007
601270
601534
601795
602061
602327
602606
602890
603176
603452
603718
603986
604274
604560
604841
605145
605455
605733
606004
606290
606583
606877
607175
607472
607762
608040
608306
608573
608850
609134
609422
609713
609985
610259
610541
610820
611105
611396
611692
611983
612260
612536
612816
613105
613396
613690
613980
614256
614536
614812
615086
615367
615672
615965
616247
616523
616799
617082
617363
617651
617946
618245
618526
618801
619078
619359
619649
619948
620245
620538
620823
621099
621376
621658
621941
622243
622538
622820
623086
623364
623635
623915
624187
624478
624761
625044
625306
625575
625849
626135
626424
626711
626996
627278
627552
627823
628100
628389
628685
628978
629168
629490
629758
630023
630287
630558
630832
631107
631374
631633
631894
632153
632411
632684
632955
633225
633494
633765
634025
634281
634543
634823
635103
635391
635682
635963
636235
636517
636809
637102
637396
637701
637994
638279
638557
638843
639137
639443
639741
640037
640325
640612
640897
641175
641476
641774
642063
642334
642611
642883
643162
643435
643718
644002
644284
644544
644804
645060
645318
645578
645860
646130
646391
646655
646912
647165
647411
647669
647932
648201
648473
648730
648975
649229
649481
649731
