70
366
657
941
1226
1510
1804
2039
2398
2700
2992
3277
3555
3857
4164
4461
4760
5055
5341
5629
5913
6208
6521
6818
7100
7385
7664
7948
8239
8533
8832
9137
9425
9705
9993
10277
10585
10889
11187
11475
11774
12060
12346
12639
12944
13260
13557
13836
14125
14417
14706
15005
15304
15602
15895
16177
16459
16750
17053
17352
17651
17942
18221
18508
18790
19076
19382
19687
19984
20267
20548
20832
21126
21419
21723
22024
22316
22598
22875
23158
23449
23751
24047
24340
24620
24906
25192
25480
25775
26082
26381
26665
26946
27231
27530
27828
28126
28425
28721
29009
29288
29574
29868
30177
30481
30774
31060
31342
31629
31923
32219
32522
32830
33122
33398
33684
33974
34269
34569
34864
35163
35450
35730
36010
36305
36600
36910
37209
37495
37777
38065
38351
38646
38945
39246
39542
39820
40091
40377
40672
40965
41265
41562
41845
42112
42410
42693
42992
43302
43599
43888
44167
44450
44738
45025
45319
45623
45920
46200
46473
46755
47033
47330
47627
47915
48198
48481
48761
49036
49320
49614
49919
50210
50487
50767
51051
51335
51622
51916
52211
52501
52780
53058
53336
53628
53918
54215
54503
54781
55059
55339
55621
55903
56203
56497
56780
57051
57328
57610
57896
58187
58484
58782
59072
59349
59626
59914
60209
60511
60812
61100
61386
61674
61958
62243
62543
62846
63149
63433
63706
63993
64282
64576
64870
65168
65458
65745
66024
66301
66599
66786
67125
67427
67722
68002
68296
68588
68881
69185
69497
69790
70068
70351
70637
70936
71235
71534
71840
72132
72412
72697
72992
73296
73607
73905
74190
74478
74762
74980
75327
75628
75929
76228
76510
76781
77068
77361
77659
77949
78246
78534
78820
79095
79380
79683
79987
80286
80578
80863
81147
81434
81725
82026
82331
82631
82921
83204
83487
83789
84098
84402
84704
85004
85297
85575
85865
86166
86473
86775
87072
87359
87647
87935
88226
88526
88829
89129
89416
89699
89982
90281
90585
90879
91184
91476
91756
92041
92332
92628
92940
93241
93528
93818
94098
94388
94687
94991
95293
95600
95887
96165
96445
96740
97044
97343
97639
97930
98222
98503
98784
99078
99376
99574
99925
100212
100490
100776
101065
101355
101648
101936
102228
102511
102787
103068
103365
103664
103958
104255
104540
104825
105112
105401
105702
106010
106308
106595
107748
108040
108337
108638
108921
109194
109480
109766
110071
110369
110668
110957
111239
111519
111805
112102
112400
112705
112995
113276
113557
113845
114135
114423
114711
114995
115275
115542
115809
116078
116364
116649
116934
117209
117488
117761
118038
118318
118602
118906
119210
119504
119786
120072
120371
120671
120986
121296
121599
121884
122165
122456
122745
123045
123355
123658
123931
124216
124503
124770
125055
125350
125643
125921
126199
126471
126741
127020
127309
127598
127888
128080
128416
128691
128953
129226
129515
129793
130053
130313
130562
130814
131068
131321
131580
131847
132116
132375
132625
132878
133127
133384
133658
133928
134192
134459
134732
134984
135238
135500
135776
136056
136345
136625
136894
137166
137444
137724
138003
138299
138594
138883
139158
139435
139714
140004
140297
140594
140876
141147
141418
141679
141938
142202
142474
142742
143006
143260
143510
143761
144020
144281
144553
144827
145107
145377
145642
145898
146165
146441
146732
147008
147286
147561
147828
148094
148360
148633
148911
149199
149484
149764
150025
150298
150571
150844
151118
151403
151695
151969
152233
152506
152776
153063
153358
153639
153918
154189
154467
154737
155005
155288
155585
155861
156129
156391
156643
156902
157165
157426
157691
157956
158230
158485
158725
158970
159220
159475
159733
159997
160255
160502
160751
161000
161249
161496
161760
162031
162304
162569
162831
163089
163359
163625
163895
164177
164456
164726
164987
165241
165494
165752
166028
166296
166565
166837
167107
167366
167636
167907
168186
168480
168780
169069
169344
169624
169903
170196
170490
170713
171069
171367
171647
171916
172194
172476
172771
173062
173346
173624
173902
174171
174446
174732
175019
175317
175603
175872
176140
176422
176693
176970
177244
177518
177792
178055
178311
178572
178835
179112
179382
179656
179921
180177
180438
180699
180958
181231
181518
181805
182079
182348
182619
182890
183176
183470
183774
184066
184356
184644
184929
185208
185505
185824
186132
186422
186712
187000
187285
187572
187867
188173
188476
188758
189038
189325
189620
189924
190223
190524
190816
191107
191390
191669
191971
192276
192570
192857
193141
193418
193698
193989
194276
194570
194863
195150
195421
195696
195973
196262
196555
196842
197126
197409
197679
197945
198218
198498
198786
199071
199347
199614
199889
200157
200427
200709
200988
201267
201539
201801
202062
202334
202609
202891
203177
203463
203736
204016
204295
204569
204849
205154
205454
205732
206011
206284
206562
206839
207124
207416
207719
207999
208272
208543
208817
209095
209387
209679
209968
210250
210528
210804
211080
211359
211649
211946
212223
212497
212773
213053
213321
213601
213889
214176
214459
214733
215000
215275
215557
215845
216136
216426
216704
216985
217264
217542
217819
218117
218412
218698
218967
219241
219524
219807
220093
220386
220686
220971
221247
221522
221798
222076
222370
222661
222946
223222
223502
223778
224041
224323
224616
224910
225190
225467
225738
226018
226291
226569
226858
227138
227421
227697
227970
228233
228511
228803
229090
229371
229654
229931
230209
230479
230756
231053
231353
231633
231909
232185
232454
232727
233011
233297
233583
233870
234146
234410
234679
234954
235245
235541
235822
236103
236386
236659
236922
237200
237491
237778
238065
238338
238605
238878
239152
239429
239712
239989
240260
240535
240804
241060
241313
241583
241849
242109
242368
242627
242874
243126
243383
243637
243903
244186
244456
244723
244979
245240
245510
245784
246059
246346
246643
246929
247195
247463
247737
248012
248294
248581
248873
249151
249428
249701
249984
250267
250551
250853
251155
251436
251704
251988
252281
252579
252862
253153
253452
253736
254004
254276
254580
254886
255164
255447
255733
256022
256289
256566
256856
257153
257434
257705
257961
258220
258473
258732
258999
259274
259535
259806
260072
260328
260580
260847
261127
261412
261685
261963
262236
262510
262783
263057
263345
263635
263926
264212
264494
264766
265057
265349
265647
265941
266233
266523
266810
267093
267370
267674
267973
268254
268539
268818
269096
269378
269665
269954
270251
270545
270816
271089
271365
271651
271947
272238
272527
272834
273118
273388
273670
273962
274258
274555
274847
275126
275397
275665
275943
276230
276510
276797
277097
277383
277642
277916
278206
278513
278807
279091
279376
279571
279912
280202
280505
280809
281104
281395
281676
281949
282227
282506
282795
283090
283384
283665
283937
284210
284486
284772
285066
285356
285647
285931
286204
286479
286756
287046
287347
287648
287938
288220
288501
288785
289070
289367
289662
289964
290251
290533
290808
291102
291399
291691
291985
292275
292561
292839
293118
293405
293706
294005
294291
294575
294850
295136
295417
295711
296007
296313
296606
296884
297163
297443
297733
298028
298328
298621
298914
299201
299477
299749
300046
300355
300657
300933
301205
301489
301777
302056
302341
302638
302943
303234
303496
303766
304060
304356
304632
304917
305205
305493
305702
306029
306331
306636
306937
307228
307508
307739
308057
308343
308619
308906
309212
309510
309774
310046
310327
310622
310907
311192
311483
311777
312055
312321
312599
312820
313187
313502
313802
314085
314367
314658
314946
315241
315536
315837
316129
316410
316688
316972
317260
317554
317779
318139
318431
318723
319006
319218
319580
319898
320200
320488
320780
321065
321366
321658
321961
322268
322567
322852
323132
323419
323724
324039
324335
324634
324923
325210
325490
325778
326082
326388
326693
326982
327270
327560
327853
328145
328446
328747
329050
329334
329614
329906
330211
330519
330815
331117
331406
331699
331985
332274
332583
332892
333195
333475
333763
334052
334344
334640
334939
335244
335539
335819
336095
336381
336675
336975
337275
337566
337858
338141
338426
338714
339019
339322
339629
339920
340200
340488
340775
341069
341373
341679
341970
342260
342541
342816
343112
343404
343699
343989
344274
344551
344837
345123
345409
345718
346012
346302
346590
346798
347142
347447
347753
348057
348362
348651
348928
349214
349497
349799
350105
350403
350687
350975
351259
351475
351815
352110
352409
352705
352981
353252
353541
353825
354122
354421
354712
355008
355296
355574
355853
356158
356456
356752
357040
357320
357603
357894
358180
358477
358783
359079
359359
359628
359897
360176
360465
360757
361045
361339
361618
361888
362157
362445
362725
363019
363313
363600
363872
364152
364441
364724
365016
365325
365634
365907
366185
366478
366772
367057
367358
367669
367953
368242
368526
368819
369102
369404
369709
370004
370273
370551
370837
371125
371398
371697
372002
372292
372551
372827
373118
373422
373705
373994
374299
374588
374848
375119
375407
375709
375991
376281
376571
376855
377074
377398
377695
377999
378302
378601
378880
379152
379433
379723
380018
380306
380604
380892
381168
381446
381717
382008
382303
382600
382889
383178
383452
383737
384021
384311
384610
384910
385199
385481
385764
386045
386342
386643
386936
387236
387527
387806
388080
388366
388665
388973
389272
389558
389853
390144
390429
390725
391033
391337
391636
391918
392198
392487
392776
393071
393371
393668
393952
394237
394513
394795
395091
395394
395691
395983
396263
396546
396839
397127
397331
397698
398001
398288
398564
398846
399133
399430
399724
400016
400315
400594
400872
401157
401446
401753
402055
402354
402639
402928
403210
403502
403798
404095
404398
404690
404974
405249
405536
405829
406124
406420
406708
406998
407282
407554
407842
408144
408446
408740
409023
409307
409592
409875
410170
410470
410776
411066
411345
411625
411910
412201
412504
412809
413104
413397
413685
413962
414244
414536
414840
415136
415425
415698
415987
416268
416550
416844
417144
417439
417724
418001
418276
418570
418861
419149
419447
419738
420017
420295
420577
420867
421168
421468
421758
421988
422316
422598
422812
423158
423457
423762
424058
424334
424611
424888
425181
425484
425783
426073
426373
426655
426933
427220
427516
427821
428123
428408
428691
428985
429270
429553
429860
430159
430464
430749
431027
431308
431609
431905
432201
432502
432793
433077
433358
433641
433835
434206
434507
434803
435089
435365
435652
435945
436143
436508
436814
437111
437394
437676
437958
438261
438562
438860
439152
439447
439733
440017
440307
440615
440927
441225
441513
441807
442103
442400
442618
442986
443298
443601
443883
444169
444467
444699
445055
445356
445651
445942
446221
446500
446793
447096
447396
447690
447973
448257
448543
448829
449130
449435
449742
450032
450318
450600
450889
451188
451494
451799
452095
452385
452671
452952
453242
453540
453846
454147
454438
454646
454991
455286
455581
455883
456181
456480
456765
457041
457326
457627
457931
458163
458517
458809
459097
459376
459657
459959
460269
460566
460852
461142
461427
461715
462009
462306
462614
462913
463192
463474
463758
464043
464356
464657
464953
465251
465534
465814
466097
466398
466702
467005
467301
467583
467873
468159
468452
468755
469060
469358
469653
469935
470225
470525
470830
471132
471438
471722
472012
472297
472583
472882
473194
473491
473786
474068
474355
474646
474937
475232
475540
475845
476131
476411
476699
476993
477302
477600
477891
478189
478475
478751
479033
479325
479627
479926
480212
480487
480773
481052
481335
481633
481934
482234
482520
482795
483066
483345
483628
483924
484213
484501
484780
485066
485344
485635
485934
486246
486550
486839
487123
487416
487712
488014
488315
488627
488925
489209
489491
489781
490083
490388
490689
490987
491281
491565
491844
492138
492438
492745
493041
493333
493617
493908
494194
494484
494782
495079
495365
495642
495917
496195
496494
496707
497067
497369
497658
497940
498223
498510
498805
499109
499410
499694
499980
500262
500543
500839
501138
501442
501740
502031
502309
502595
502883
503184
503490
503787
504075
504365
504648
504929
505222
505522
505823
506119
506393
506673
506962
507249
507547
507850
508152
508449
508739
509014
509312
509616
509918
510216
510513
510798
511087
511366
511653
511963
512271
512562
512846
513128
513418
513714
514009
514310
514621
514913
515189
515469
515755
516059
516366
516661
516963
517260
517548
517827
518119
518420
518727
519023
519302
519587
519876
520144
520458
520761
520975
521336
521623
521907
522202
522505
522810
523111
523410
523701
523994
524274
524570
524883
525192
525488
525774
526057
526349
526641
526935
527236
527542
527833
528113
528395
528683
528986
529288
529592
529890
530185
530466
530754
531050
531352
531663
531961
532251
532538
532822
533115
533409
533712
534007
534301
534584
534865
535155
535453
535760
536060
536358
536639
536923
537205
537499
537805
538109
538415
538700
538987
539273
539567
539866
540166
540466
540761
541045
541327
541611
541909
542219
542522
542820
543111
543401
543682
543977
544280
544584
544888
545176
545450
545735
546016
546300
546594
546790
547193
547475
547753
548027
548327
548626
548920
549213
549496
549778
550064
550344
550633
550945
551247
551527
551810
552090
552379
552675
552969
553275
553582
553871
554149
554432
554717
555020
555319
555608
555907
556196
556480
556760
557050
557354
557661
557956
558233
558518
558806
559096
559390
559690
559990
560288
560570
560841
561134
561428
561725
562014
562302
562585
562805
563137
563418
563724
564024
564314
564595
564876
565157
565447
565736
566034
566252
566610
566894
567178
567372
567714
568021
568321
568617
568911
569198
569476
569756
570051
570359
570662
570951
571239
571530
571825
572116
572420
572723
573034
573322
573602
573886
574186
574424
574780
575088
575380
575672
575953
576241
576544
576856
577158
577450
577734
578018
578305
578595
578894
579197
579442
579786
580066
580351
580642
580942
581241
581537
581827
582113
582390
582663
582913
583232
583533
583816
584092
584358
584630
584898
585170
585449
585726
586006
586270
586519
586766
587025
587293
587566
587838
588106
588371
588638
588900
589172
589448
589741
590036
590311
590582
590859
591138
591411
591702
591994
592282
592566
592849
593062
593381
593679
593985
594273
594558
594849
595120
595396
595684
595985
596271
596578
596873
597130
597396
597664
597919
598180
598452
598706
598963
599216
599463
599697
599946
600209
600477
600732
601005
601267
601531
601793
602058
602324
602603
602888
603173
603449
603715
603983
604271
604556
604837
605142
605453
605730
606001
606287
606582
606873
607172
607470
607759
608038
608303
608571
608847
609131
609420
609710
609982
610257
610538
610817
611103
611394
611689
611981
612258
612532
612813
613102
613393
613686
613976
614254
614532
614809
615083
615365
615669
615961
616244
616520
616796
617078
617361
617648
617942
618241
618523
618798
619075
619356
619647
619945
620241
620535
620821
621096
621373
621655
621939
622240
622534
622817
623083
623360
623632
623912
624185
624475
624758
625041
625304
625572
625846
626132
626422
626708
626993
627275
627550
627820
628096
628386
628683
628974
629165
629488
629754
630020
630284
630555
630829
631104
631372
631630
631891
632151
632409
632682
632951
633222
633492
633762
634022
634278
634540
634821
635100
635388
635679
635960
636232
636514
636806
637098
637393
637698
637992
638275
638554
638841
639135
639440
639738
640034
640323
640608
640894
641173
641472
641770
642060
642332
642607
642880
643158
643433
643715
643999
644281
644543
644801
645057
645315
645576
645857
646126
646388
646652
646909
647162
647408
647667
647928
648198
648472
648727
648972
649226
649479
649728
