80
393
708
1029
1366
1709
2033
2347
2659
2969
3298
3628
3957
4280
4606
4925
5237
5565
5895
6219
6524
6826
7139
7459
7782
8102
8411
8718
9022
9317
9625
9950
10278
10587
10889
11183
11469
11758
12048
12336
12619
12908
13181
13455
13738
14027
14330
14638
14921
15193
15471
15757
16048
16348
16652
16953
17247
17529
17810
18096
18392
18684
18973
19264
19555
19857
20170
20491
20819
21163
21496
21806
22127
22448
22779
23123
23454
23772
24087
24401
24717
25037
25370
25701
26005
26306
26634
26964
27300
27619
27931
28240
28556
28858
29151
29464
29778
30085
30383
30684
30981
31306
31631
31944
32259
32563
32863
33163
33463
33771
34086
34387
34675
34977
35287
35594
35909
36214
36527
36834
37137
37446
37768
38095
38426
38744
39055
39371
39687
40010
40334
40664
40971
41262
41539
41826
42123
42418
42711
42987
43265
43543
43813
44091
44385
44673
44974
45267
45551
45837
46135
46438
46748
47058
47356
47654
47941
48227
48513
48817
49123
49420
49697
49976
50247
50525
50812
51112
51398
51685
51963
52236
52507
52790
53083
53377
53663
53943
54216
54513
54811
55104
55403
55707
56008
56305
56605
56915
57249
57588
57925
58242
58539
58842
59163
59487
59819
60153
60473
60781
61086
61392
61723
62054
62357
62669
62997
63406
63627
63963
64289
64624
64927
65243
65573
65903
66223
66563
66888
67197
67509
67830
68162
68502
68828
69134
69444
69755
70080
70415
70749
71084
71398
71709
72020
72348
72678
73000
73306
73599
73911
74228
74555
74894
75212
75535
75853
76166
76492
76829
77160
77497
77826
78146
78474
78813
79158
79514
79851
80159
80462
80771
81106
81450
81788
82111
82441
82771
83104
83431
83774
84116
84426
84734
85071
85416
85750
86067
86371
86682
86991
87304
87652
87999
88337
88666
88997
89344
89696
90059
90398
90736
91068
91395
91740
92092
92447
92790
93128
93469
93815
94155
94514
94866
95197
95526
95861
96224
96586
96938
97281
97610
97947
98288
98644
99008
99355
99689
100013
100358
100720
101083
101424
101769
102111
102453
102822
103193
103552
103878
104207
104545
104879
105196
105529
105849
106179
106502
106840
107207
107565
107916
108250
108573
108917
109273
109633
109996
110344
110689
111045
111408
111789
112164
112519
112878
113243
113612
113983
114351
114703
115065
115296
115738
116087
116433
116766
117093
117430
117777
118140
118508
118850
119174
119509
119843
120169
120501
120821
121145
121457
121758
122090
122445
122801
123144
123474
123822
124177
124534
124892
125231
125562
125888
126226
126590
126951
127297
127635
127966
128289
128630
128983
129351
129692
130004
130330
130648
130987
131318
131645
131955
132264
132574
132909
133271
133646
134015
134363
134720
135103
135296
135723
136086
136433
136784
137135
137505
137884
138231
138580
138932
139308
139687
140061
140431
140774
141125
141492
141871
142249
142608
142946
143305
143679
144057
144437
144806
145155
145506
145875
146247
146603
146959
147312
147669
148050
148433
148809
149165
149520
149879
150257
150646
151011
151365
151727
152090
152467
152858
153240
153596
153958
154342
154720
155099
155475
155835
156185
156554
156942
157321
157671
158026
158383
158752
159116
159486
159864
160214
160572
160948
161332
161715
162085
162453
162817
163201
163592
163970
164331
164690
165051
165438
165830
166200
166556
166917
167291
167653
168028
168387
168726
169052
169389
169763
170127
170480
170842
171190
171536
171900
172269
172643
172988
173326
173697
174084
174452
174830
175190
175543
175912
176283
176661
177029
177375
177695
178028
178386
178749
179127
179487
179833
180211
180594
180973
181340
181688
182040
182386
182732
183073
183424
183766
184103
184445
184805
185155
185491
185819
186151
186488
186844
187205
187568
187893
188207
188529
188858
189209
189560
189898
190233
190561
190880
191224
191578
191933
192260
192584
192916
193254
193602
193946
194282
194620
194951
195283
195634
196001
196363
196701
197044
197389
197732
198081
198431
198778
199115
199454
199807
200165
200521
200867
201210
201548
201892
202240
202595
202957
203306
203645
203994
204342
204687
205030
205362
205694
206045
206416
206783
207157
207518
207876
208232
208620
209012
209375
209743
210106
210470
210845
211236
211618
211973
212348
212723
213092
213460
213811
214150
214494
214846
215232
215565
215979
216335
216687
217036
217387
217717
218058
218389
218710
219065
219440
219817
220182
220547
220914
221279
221666
222036
222388
222728
223063
223415
223779
224134
224484
224823
225169
225512
225887
226263
226631
226993
227347
227701
228083
228463
228823
229189
229547
229897
230269
230657
231029
231371
231732
232101
232472
232850
233225
233590
233936
234306
234702
235081
235449
235809
236171
236540
236934
237323
237679
238026
238379
238733
239107
239480
239827
240175
240534
240902
241279
241662
242033
242383
242749
243137
243525
243900
244266
244636
244992
245372
245766
246136
246485
246841
247220
247595
247973
248348
248704
249043
249404
249780
250143
250505
250850
251201
251549
251916
252297
252658
253016
253371
253741
254120
254499
254870
255218
255583
255959
256339
256730
257106
257456
257821
258204
258583
258956
259323
259680
260020
260373
260749
261123
261475
261824
262183
262546
262919
263295
263643
264000
264354
264712
265095
265468
265815
266165
266530
266897
267266
267635
267996
268344
268691
269068
269449
269812
270169
270533
270884
271257
271640
272004
272359
272712
273073
273445
273818
274186
274535
274893
275258
275619
275999
276376
276723
277067
277431
277815
278179
278537
278904
279253
279601
279980
280370
280732
281087
281451
281819
282189
282572
282942
283294
283655
284020
284404
284776
285145
285498
285847
286219
286595
286963
287324
287678
288029
288391
288782
289147
289504
289866
290212
290572
290951
291316
291671
292023
292372
292736
293115
293490
293842
294193
294550
294906
295268
295636
295987
296333
296686
297067
297442
297805
298181
298536
298890
299264
299622
299987
300322
300635
300967
301298
301654
302022
302390
302742
303098
303470
303859
304236
304608
304974
305335
305701
306078
306468
306829
307186
307541
307905
308267
308635
308977
309324
309665
310025
310405
310781
311130
311474
311821
312169
312536
312902
313245
313591
313940
314284
314647
314984
315303
315610
315920
316231
316561
316899
317230
317583
317926
318276
318634
319015
319397
319757
320105
320465
320835
321217
321582
321947
322298
322645
323011
323390
323759
324109
324452
324812
325180
325544
325910
326255
326569
326882
327200
327553
327914
328265
328616
328970
329337
329718
330087
330463
330823
331195
331571
331949
332318
332685
333048
333403
333739
334107
334455
334782
335093
335397
335708
336017
336342
336666
336991
337306
337621
337948
338298
338657
339012
339358
339721
340069
340431
340781
341111
341439
341770
342120
342503
342885
343265
343631
344003
344374
344743
345120
345484
345824
346151
346494
346856
347203
347525
347854
348187
348518
348866
349225
349591
349927
350238
350536
350840
351148
351454
351777
352100
352439
352784
353148
353531
353896
354247
354577
354906
355229
355571
355928
356290
356644
356991
357357
357742
358126
358495
358859
359217
359576
359956
360331
360697
361029
361359
361714
362055
362405
362742
363046
363345
363641
363937
364265
364617
364952
365268
365580
365911
366273
366650
367033
367410
367779
368153
368545
368940
369314
369654
370011
370368
370726
371091
371448
371801
372145
372498
372875
373236
373591
373940
374297
374658
375029
375410
375771
376120
376472
376833
377202
377564
377923
378282
378622
378971
379343
379717
380072
380413
380754
381116
381464
381794
382139
382466
382794
383119
383465
383841
384194
384545
384892
385241
385603
385978
386354
386713
387066
387418
387765
388132
388473
388793
389105
389430
389767
390115
390464
390821
391173
391521
391873
392252
392625
392978
393319
393672
394027
394388
394770
395127
395457
395800
396149
396523
396895
397265
397620
397963
398312
398679
399043
399409
399762
400109
400448
400799
401145
401488
401826
402175
402532
402895
403280
403658
404028
404379
404748
405126
405499
405883
406248
406603
406956
407337
407725
408087
408449
408805
409153
409527
409907
410277
410628
410978
411330
411705
412077
412438
412791
413147
413497
413861
414252
414614
414959
415315
415667
416039
416408
416768
417122
417467
417814
418182
418561
418914
419264
419619
419968
420339
420698
421064
421418
421759
422111
422481
422858
423214
423552
423889
424227
424558
424891
425238
425581
425918
426264
426619
427002
427376
427732
428091
428435
428794
429171
429552
429906
430256
430621
430981
431353
431722
432067
432414
432754
433089
433451
433812
434161
434496
434849
435215
435582
435955
436329
436673
437016
437382
437764
438132
438480
438827
439172
439522
439874
440230
440581
440923
441252
441601
441951
442308
442648
442966
443287
443605
443938
444297
444644
444973
445304
445639
445993
446347
446710
447072
447416
447755
448109
448461
448825
449179
449512
449860
450209
450553
450906
451252
451597
451938
452280
452641
452998
453351
453693
454028
454376
454717
455083
455450
455800
456131
456467
456813
457172
457516
457858
458207
458543
458884
459248
459600
459958
460303
460627
460977
461328
461672
462018
462355
462689
463022
463378
463758
464113
464465
464799
465146
465501
465864
466217
466555
466878
467206
467552
467903
468263
468608
468930
469269
469611
469960
470325
470678
471030
471369
471711
472075
472436
472796
473146
473500
473853
474194
474555
474915
475259
475587
475927
476289
476650
477018
477368
477711
478039
478384
478745
479113
479461
479805
480158
480516
480871
481248
481610
481946
482284
482625
482994
483340
483688
484029
484359
484701
485045
485404
485769
486123
486473
486833
487210
487593
487952
488302
488652
489002
489357
489716
490081
490430
490761
491099
491455
491811
492161
492493
492818
493144
493477
493817
494171
494509
494837
495165
495501
495851
496212
496572
496922
497241
497567
497900
498238
498573
498888
499188
499506
499818
500136
500460
500787
501114
501436
501759
502078
502425
502769
503103
503419
503722
504042
504375
504719
505086
505435
505765
506085
506417
506765
507108
507441
507789
508131
508479
508846
509228
509605
509950
510298
510661
511033
511408
511769
512120
512465
512819
513187
513553
513907
514263
514611
514963
515331
515702
516081
516437
516787
517133
517502
517875
518233
518577
518929
519280
519640
520009
520382
520733
521076
521437
521810
522171
522536
522872
523218
523560
523911
524259
524615
524963
525310
525651
526019
526397
526766
527127
527481
527824
528157
528505
528872
529222
529576
529941
530308
530686
531063
531428
531775
532012
532470
532861
533233
533595
533951
534313
534683
535054
535417
535767
536114
536479
536869
537268
537654
538037
538398
538745
539121
539503
539873
540215
540567
540934
541302
541663
542030
542394
542738
543084
543464
543844
544202
544553
544913
545282
545654
546033
546410
546755
547094
547453
547834
548208
548573
548940
549301
549660
550046
550429
550795
551140
551482
551840
552201
552568
552928
553269
553623
553984
554353
554722
555089
555435
555771
556135
556508
556870
557230
557590
557941
558295
558672
559052
559403
559746
560110
560467
560833
561208
561559
561881
562188
562514
562881
563253
563609
563965
564328
564684
565049
565434
565816
566166
566524
566894
567272
567643
568013
568382
568729
569082
569462
569841
570197
570547
570907
571271
571628
572001
572366
572718
573057
573413
573799
574170
574526
574877
575215
575556
575909
576275
576640
576983
577330
577693
578075
578459
578828
579190
579547
579893
580264
580645
581020
581377
581734
582106
582484
582858
583228
583583
583948
584304
584679
585058
585414
585757
586105
586476
586850
587216
587586
587922
588267
588626
589004
589369
589724
590077
590433
590786
591156
591528
591867
592199
592531
592859
593202
593540
593875
594212
594549
594902
595261
595635
596012
596365
596715
597076
597463
597834
598203
598569
598909
599255
599622
599987
600345
600690
601039
601393
601759
602123
602481
602834
603169
603504
603862
604225
604570
604904
605246
605579
605934
606298
606671
607015
607350
607683
608012
608354
608708
609055
609394
609747
610110
610496
610877
611259
611613
611963
612337
612706
613065
613420
613772
614124
614487
614849
615227
615586
615931
616285
616652
617031
617390
617761
618117
618465
618822
619197
619581
619936
620280
620645
621008
621377
621748
622119
622458
622796
623158
623526
623869
624212
624549
624889
625226
625588
625968
626329
626672
627020
627370
627723
628078
628431
628781
629128
629482
629860
630241
630622
630979
631337
631693
632061
632442
632810
633170
633524
633887
634275
634645
635007
635363
635725
636096
636479
636853
637214
637552
637894
638237
638586
638916
639251
639592
639943
640285
640647
641022
641393
641735
642070
642434
642810
643174
643541
643898
644265
644626
645010
645393
645747
646097
646448
646819
647192
647566
647932
648289
648645
649002
649370
649749
