85
394
706
1043
1363
1716
2038
2348
2662
2964
3300
3643
3955
4284
4606
4762
4935
5239
5570
5906
6224
6518
6826
7142
7472
7784
8103
8410
8736
9024
9317
9621
9958
10273
10593
10893
11375
11562
11801
12066
12305
12629
12905
13188
13449
13850
14024
14346
14641
14917
15197
15475
15758
16047
16197
16345
16655
16953
17254
17529
17812
18093
18396
18685
18971
19270
19559
19858
20175
20494
20821
21166
21503
21805
22130
22449
22785
23125
23454
23778
24088
24403
24722
25038
25374
25551
25704
26006
26305
26636
26967
27299
27618
27929
28247
28557
28858
29146
29462
29777
30084
30381
30693
30986
31303
31634
31948
32263
32560
32865
33166
33459
33775
34097
34390
34669
34970
35284
35502
35597
35913
36221
36533
36838
37146
37271
37449
37778
38101
38429
38756
39060
39384
39691
40020
40344
40672
40972
41240
41545
41814
42147
42418
42710
42991
43264
43546
43820
44165
44383
44657
45081
45273
45553
45842
46142
46434
46602
46756
47060
47352
47715
47933
48226
48517
48830
49126
49418
49707
49977
50309
50494
50816
51107
51402
51688
51965
52235
52353
52507
52800
53083
53379
53665
53945
54219
54516
54807
55111
55401
55703
56165
56433
56633
56910
57020
57248
57718
57921
58238
58542
59148
59486
59827
60162
60308
60542
60793
60955
61130
61239
61398
61579
61726
62058
62374
62681
62994
63417
63623
63948
64142
64284
64640
64916
65192
65570
65897
66087
66344
66483
66859
67167
67326
67471
67625
68016
68121
68493
68825
69149
69410
69735
70085
70224
70403
70749
71085
71374
71542
71700
71864
72000
72337
72649
72805
73018
73260
73401
73591
73934
74260
74409
74654
75032
75243
75538
75842
76073
76308
76574
76914
77219
77826
78141
78468
78815
79164
79511
79852
80161
80462
80769
81107
81454
81791
82108
82453
82768
83105
83430
83778
84117
84268
84440
84729
84903
85077
85414
85750
86079
86373
86686
86987
87297
87656
88010
88341
88660
89001
89340
89708
90063
90401
90738
91058
91395
91737
92078
92443
92797
93127
93474
93813
94153
94518
94859
95196
95544
95848
96061
96231
96587
96943
97287
97618
97941
98282
98653
98820
99008
99358
99686
100007
100216
100377
100712
101087
101416
101774
102102
102459
102822
103196
103552
103738
103884
104206
104547
104881
105201
105524
105846
106178
106518
106820
106951
107213
107556
107914
108250
108590
108928
109279
109638
110003
110341
110698
111049
111407
111790
112163
112515
112883
113248
113616
113994
114354
114675
115155
115301
115764
116111
116439
116758
117097
117417
117774
118168
118513
118841
119150
119464
119842
120057
120323
120507
120828
121149
121463
121756
121952
122104
122445
122803
123136
123486
123820
124175
124324
124542
124883
125235
125566
125888
126232
126594
126960
127296
127636
127950
128135
128294
128624
128985
129349
129705
129834
130007
130332
130650
130986
131317
131644
131958
132265
132574
132910
133273
133650
134018
134365
134721
135103
135300
135475
135724
136085
136434
136786
137135
137509
137886
138233
138582
138934
139309
139688
140062
140433
140776
141125
141508
141611
141878
142244
142579
142751
142959
143277
143676
144057
144436
144799
144982
145165
145500
145728
145878
146138
146261
146587
146983
147128
147307
147490
147676
147876
148046
148426
148600
148818
149172
149514
149869
150062
150265
150650
150837
151010
151163
151368
151733
152090
152451
152626
152855
153037
153264
153597
153821
153959
154344
154735
155109
155476
155831
156025
156189
156346
156555
156759
156949
157326
157640
157875
158035
158373
158757
158934
159166
159490
159865
160216
160560
160959
161336
161622
161771
162086
162455
162820
163205
163595
163969
164334
164691
165054
165440
165832
166202
166559
166920
167294
167656
168030
168387
168726
169052
169393
169764
170129
170480
170843
171192
171540
171904
172271
172645
172990
173329
173701
174085
174455
174832
175191
175546
175912
176286
176664
177033
177378
177697
178030
178390
178753
179129
179489
179835
180213
180595
180976
181344
181690
182043
182389
182734
183080
183427
183768
184106
184445
184808
185156
185493
185820
186155
186491
186844
187209
187570
187893
188211
188538
188860
189208
189564
189904
190235
190563
190882
191222
191582
191934
192264
192587
192918
193257
193603
193947
194285
194621
194953
195283
195636
196003
196363
196703
197045
197391
197734
198083
198434
198778
199118
199458
199808
200169
200523
200871
201210
201548
201893
202243
202597
202960
203307
203646
203995
204344
204688
205034
205364
205698
206046
206418
206784
207159
207519
207877
208235
208622
209013
209374
209745
210109
210470
210846
211236
211618
211973
212350
212726
213095
213451
213816
214156
214497
214848
215236
215561
215983
216337
216691
217041
217391
217720
218059
218390
218713
219069
219443
219820
220186
220548
220917
221281
221669
221876
222046
222388
222723
223064
223213
223417
223782
224137
224481
224824
225171
225513
225887
226265
226633
226996
227348
227702
228085
228462
228822
229189
229548
229898
230269
230658
231029
231373
231734
232104
232474
232851
233228
233591
233939
234309
234703
235083
235450
235811
236174
236543
236935
237325
237681
238027
238381
238735
239109
239477
239829
240178
240534
240903
241283
241665
242034
242384
242752
243139
243301
243527
243902
244268
244637
244993
245373
245769
246136
246486
246844
247222
247597
247974
248349
248707
249047
249405
249781
250145
250508
250852
251202
251551
251921
252099
252297
252659
253017
253374
253744
254122
254502
254870
255219
255584
255961
256341
256732
257108
257460
257821
258205
258585
258958
259325
259680
260023
260375
260750
261125
261479
261826
262186
262550
262920
263295
263643
264001
264356
264714
265097
265468
265815
266166
266530
266898
267265
267636
267997
268345
268693
269070
269448
269816
270173
270536
270883
271255
271642
271998
272355
272483
272715
273076
273445
273827
274189
274539
274893
275256
275623
276003
276381
276727
277073
277435
277816
278171
278538
278907
279256
279426
279603
279981
280374
280733
281092
281452
281821
282183
282575
282945
283300
283659
284021
284408
284781
285150
285500
285844
286223
286600
286967
287324
287541
287682
288031
288391
288783
289148
289511
289868
290214
290575
290953
291322
291667
292023
292373
292744
293119
293494
293847
294192
294550
294904
295272
295636
295984
296337
296689
297070
297443
297808
298183
298529
298896
299264
299626
299992
300321
300633
300965
301300
301655
302027
302390
302746
303096
303472
303865
304237
304610
304972
305172
305343
305700
305921
306079
306468
306832
307185
307547
307904
308285
308634
308817
308981
309325
309669
310028
310409
310783
311137
311482
311824
312004
312171
312533
312908
313245
313591
313938
314284
314464
314648
314989
315306
315612
315921
316233
316562
316900
317232
317585
317927
318277
318634
319018
319400
319758
320108
320465
320837
321218
321584
321949
322298
322646
323013
323390
323759
324109
324453
324813
325181
325547
325913
326258
326572
326885
327202
327555
327915
328268
328619
328972
329339
329720
330090
330465
330826
331196
331571
331952
332321
332687
333049
333403
333741
334112
334477
334789
335088
335295
335713
336030
336335
336469
336669
336999
337304
337624
337944
338306
338663
338990
339361
339558
339721
340077
340432
340780
341115
341437
341773
342120
342509
342889
343267
343632
344007
344375
344745
345121
345488
345670
345826
346154
346495
346867
347200
347526
347858
348200
348513
348872
349230
349596
349781
349926
350089
350246
350533
350854
351180
351450
351779
351943
352108
352443
352789
353149
353303
353536
353884
354249
354581
354909
355225
355569
355745
355927
356284
356648
356992
357219
357364
357742
358130
358278
358494
358662
358863
359217
359574
359958
360172
360338
360695
361032
361357
361714
361881
362061
362413
362752
363065
363348
363644
363939
364265
364622
364957
365118
365271
365584
365913
366281
366652
367038
367412
367782
368155
368338
368554
368941
369168
369319
369665
370014
370370
370731
371102
371447
371810
372149
372501
372879
373240
373384
373590
373742
373943
374292
374658
374871
375033
375413
375579
375778
376123
376472
376835
377206
377566
377927
378285
378624
378973
379345
379721
380082
380413
380752
381120
381467
381794
382144
382470
382602
382798
383119
383466
383846
384200
384546
384892
385241
385600
385973
386106
386354
386714
387059
387416
387769
387958
388133
388474
388795
389107
389433
389771
390114
390469
390807
391170
391525
391868
392256
392629
392977
393317
393674
394022
394390
394773
395127
395467
395806
395999
396149
396523
396896
397053
397266
397632
397962
398312
398685
399035
399406
399594
399765
400115
400453
400798
401115
401468
401827
402178
402527
402896
403247
403663
404029
404225
404390
404746
405132
405497
405876
406241
406603
406957
407194
407355
407715
408084
408443
408643
408806
409149
409523
409907
410095
410290
410494
410612
410753
410980
411329
411715
412088
412442
412816
413141
413504
413710
413871
414250
414607
414952
415312
415668
415880
416040
416407
416602
416777
417114
417466
417818
417982
418184
418565
418911
419116
419272
419623
419817
419974
420132
420341
420565
420705
421069
421428
421763
422113
422482
422862
423218
423557
423877
424228
424383
424565
424893
425242
425583
425920
426263
426619
427004
427374
427739
428093
428435
428796
429171
429553
429913
430261
430618
430986
431357
431714
432066
432410
432757
433094
433452
433814
434160
434493
434685
434851
435218
435579
435959
436331
436668
437017
437212
437384
437765
438001
438138
438474
438672
438829
439027
439176
439524
439707
439877
440063
440242
440573
440933
441247
441608
441950
442159
442316
442602
442825
442975
443283
443610
443921
444085
444329
444623
444979
445300
445638
446000
446345
446716
447068
447390
447747
447924
448108
448296
448473
448606
448824
449037
449184
449510
449867
450211
450555
450908
451258
451457
451581
451787
451945
452293
452642
452850
453000
453357
453717
454025
454192
454474
454723
455073
455446
455661
455810
455948
456066
456471
456813
457025
457176
457527
457865
458201
458543
458902
459253
459440
459562
459795
459964
460308
460637
460802
460979
461165
461342
461645
461920
462093
462360
462687
463032
463376
463619
463762
464121
464503
464800
465149
465607
465873
466221
466562
466873
467224
467545
467905
468270
468446
468611
468931
469282
469627
469965
470326
470676
471038
471379
471482
471712
472061
472441
472811
473151
473386
473848
474057
474273
474563
474925
475217
475583
475925
476286
476642
477019
477365
477727
478026
478222
478395
478548
478754
478997
479137
479455
479814
480157
480521
480881
481247
481612
481957
482295
482536
482603
482833
483007
483133
483341
483551
483686
483887
484040
484354
484701
485046
485402
485637
485781
486130
486479
486670
486843
487218
487606
487955
488294
488478
488645
489010
489363
489717
490089
490440
490767
491098
491433
491590
491801
492163
492500
492802
493148
493476
493815
494169
494510
494845
495164
495498
495856
496208
496571
496922
497241
497568
497903
498234
498565
498895
499201
499509
499810
500145
500460
500622
500791
501114
501435
501757
502081
502422
502779
503095
503343
503551
503737
504025
504394
504707
505114
505435
505564
505738
505925
506172
506416
506819
507122
507456
507895
508125
508479
508841
509234
509397
509672
509880
510081
510319
510427
510673
510992
511272
511712
512086
512290
512456
512641
513202
513394
513588
513906
514100
514316
514605
514803
515025
515332
515558
515778
515986
516095
516247
516449
516783
517036
517163
517331
517951
518132
518326
518452
518645
518921
519031
519298
519568
519679
519875
520071
520388
520596
520900
521059
521419
521572
521870
522115
522342
522543
522890
523237
523513
523821
524125
524285
524447
524596
524795
525035
525198
525371
525644
525801
526025
526233
526769
527133
527330
527497
527826
528261
528482
528870
529230
529580
529931
530310
530654
530910
531060
531231
531434
531769
532011
532186
532482
532675
532868
533226
533376
533605
533942
534100
534316
534529
534689
535059
535422
535770
536085
536482
536701
536880
537083
537272
537664
538043
538403
538585
538747
538942
539129
539514
539873
540222
540573
540929
541302
541669
542032
542369
542734
543080
543474
543849
544203
544552
544918
545140
545290
545656
546041
546414
546754
547054
547455
547836
548211
548577
548942
549304
549663
550050
550432
550798
551143
551486
551842
552204
552572
552931
553273
553624
553986
554356
554726
555090
555438
555775
556138
556510
556874
557233
557593
557943
558298
558676
559054
559407
559750
560113
560470
560836
561209
561560
561882
562190
562516
562882
563255
563612
563969
564329
564687
565052
565437
565818
566169
566523
566895
567275
567646
568016
568385
568732
569095
569461
569850
570197
570550
570907
571112
571275
571628
572014
572360
572725
573062
573244
573415
573619
573786
574173
574527
574880
575021
575223
575553
575909
576281
576646
576975
577334
577675
577888
578075
578468
578646
578834
579204
579545
579894
580271
580418
580657
581023
581197
581383
581728
581927
582110
582492
582854
583227
583581
583950
584311
584491
584677
584857
585060
585409
585764
586107
586476
586852
587208
587589
587932
588265
588628
589004
589165
589373
589732
590074
590431
590787
591159
591529
591870
592200
592533
592861
593205
593544
593877
594213
594551
594904
595263
595637
596014
596366
596718
597079
597463
597836
598205
598571
598911
599257
599624
599990
600347
600691
601041
601393
601760
602125
602483
602836
603172
603506
603865
604227
604571
604906
605250
605583
605936
606302
606673
607018
607353
607685
608015
608358
608710
609056
609398
609750
610112
610498
610880
611260
611616
611962
612344
612711
613064
613174
613426
613783
614130
614491
614852
615232
615583
615936
616284
616657
617033
617394
617765
618118
618468
618827
619007
619201
619579
619940
620286
620647
621010
621379
621753
622121
622462
622800
623004
623162
623527
623867
624213
624552
624894
625229
625591
625969
626332
626675
627023
627371
627724
628079
628432
628785
629130
629484
629861
630244
630624
630981
631338
631695
632062
632443
632811
633171
633527
633888
634277
634646
635008
635363
635728
636096
636480
636856
637217
637557
637894
638237
638587
638919
639254
639592
639943
640289
640651
641023
641394
641738
642073
642436
642811
643175
643542
643898
644267
644628
645010
645399
645746
646098
646449
646820
647012
647194
647568
647934
648292
648647
649003
649372
649751
