139
430
713
1008
1328
1635
1926
2217
2509
2804
3093
3395
3713
4015
4305
4591
4885
5184
5485
5788
6103
6398
6679
6967
7262
7570
7880
8182
8494
8782
9060
9351
9651
9960
10264
10565
10865
11153
11433
11728
12038
12351
12651
12946
13245
13532
13816
14117
14431
14736
15031
15320
15621
15909
16203
16511
16825
17124
17414
17703
18000
18293
18593
18898
19204
19497
19783
20079
20382
20679
20983
21288
21587
21875
22165
22458
22763
23066
23372
23667
23964
24255
24543
24847
25159
25464
25758
26046
26339
26630
26919
27230
27534
27831
28128
28401
28697
28978
29267
29573
29872
30153
30431
30708
30991
31280
31578
31874
32172
32458
32727
33002
33289
33587
33875
34051
34397
34690
34973
35259
35558
35872
36167
36463
36765
37053
37336
37629
37927
38239
38532
38817
39108
39393
39675
39969
40272
40582
40872
41149
41439
41724
42006
42305
42608
42908
43194
43473
43759
44048
44343
44642
44937
45235
45513
45791
46080
46372
46671
46969
47259
47553
47833
48108
48396
48700
48994
49284
49571
49850
50134
50411
50692
51004
51304
51589
51874
52152
52432
52715
53003
53309
53607
53884
54165
54442
54724
55011
55307
55609
55903
56184
56461
56734
57026
57321
57613
57914
58207
58482
58757
59036
59328
59630
59925
60216
60507
60784
61055
61340
61639
61940
62234
62521
62836
63136
63422
63720
64033
64346
64640
64928
65226
65513
65804
66107
66419
66724
67008
67302
67601
67894
68194
68500
68810
69106
69389
69678
69977
70275
70577
70883
71187
71476
71764
72059
72363
72669
72971
73268
73565
73852
74136
74440
74754
75054
75356
75649
75940
76230
76523
76834
77141
77440
77738
78023
78316
78605
78908
79221
79530
79827
80118
80403
80703
80997
81298
81615
81914
82201
82490
82779
83082
83388
83692
84004
84299
84582
84870
85165
85475
85778
86075
86382
86672
86955
87249
87553
87869
88173
88463
88762
89051
89336
89634
89940
90256
90551
90836
91135
91426
91719
92026
92333
92641
92929
93211
93509
93804
94099
94407
94713
95012
95301
95589
95889
96194
96495
96797
97101
97392
97672
97964
98261
98568
98866
99178
99476
99764
100051
100351
100661
100962
101265
101551
101843
102136
102424
102735
103048
103349
103644
103931
104224
104517
104816
105129
105437
105730
106013
106296
106593
106897
107205
107519
107824
108106
108395
108685
108986
109292
109592
109902
110196
110478
110771
111066
111377
111683
111984
112287
112577
112861
113152
113454
113770
114075
114356
114653
114944
115228
115524
115828
116164
116459
116744
117040
117332
117619
117928
118234
118543
118834
119116
119417
119715
120015
120319
120625
120920
121211
121494
121795
122098
122402
122702
123004
123304
123586
123873
124186
124489
124789
125084
125378
125670
125957
126251
126568
126875
127169
127465
127757
128048
128339
128643
128957
129260
129546
129836
130128
130423
130724
131033
131348
131645
131929
132211
132509
132810
133111
133421
133729
134014
134296
134585
134890
135198
135503
135808
136106
136390
136673
136968
137277
137585
137887
138187
138480
138764
139057
139361
139675
139980
140274
140569
140860
141143
141438
141747
142061
142357
142645
142942
143234
143527
143836
144142
144451
144740
145023
145321
145616
145914
146224
146528
146832
147119
147397
147704
148010
148308
148615
148914
149210
149490
149778
150089
150397
150698
150993
151292
151585
151873
152164
152482
152787
153083
153366
153663
153957
154247
154551
154871
155169
155461
155748
156036
156339
156638
156943
157258
157551
157834
158120
158417
158719
159025
159334
159641
159928
160210
160497
160800
161108
161409
161716
162012
162299
162587
162880
163194
163499
163799
164100
164392
164674
164964
165264
165580
165884
166173
166476
166767
167054
167354
167662
167973
168271
168550
168850
169140
169432
169739
170046
170354
170648
170932
171228
171526
171826
172127
172437
172739
173025
173305
173609
173911
174211
174516
174818
175113
175397
175686
175994
176299
176600
176895
177193
177478
177770
178066
178381
178685
178989
179282
179569
179864
180151
180456
180772
181074
181365
181649
181943
182238
182538
182850
183165
183461
183746
184031
184324
184625
184927
185236
185544
185831
186117
186405
186709
187015
187320
187630
187926
188207
188494
188785
189097
189405
189704
190006
190296
190580
190874
191177
191491
191792
192088
192385
192672
192958
193257
193562
193870
194173
194455
194759
195053
195344
195649
195951
196262
196547
196830
197134
197431
197727
198035
198341
198637
198927
199216
199516
199818
200118
200419
200720
201010
201300
201589
201895
202201
202507
202803
203098
203392
203674
203974
204289
204594
204892
205183
205472
205767
206057
206366
206681
206982
207275
207565
207733
208064
208364
208669
208983
209278
209569
209857
210147
210445
210752
211061
211371
211664
211947
212228
212529
212834
213140
213447
213751
214039
214321
214614
214922
215229
215531
215835
216127
216412
216701
216997
217309
217617
217912
218210
218503
218789
219084
219392
219701
220006
220294
220588
220877
221165
221471
221779
222093
222387
222673
222971
223263
223558
223865
224171
224474
224759
225042
225342
225642
225944
226253
226553
226853
227137
227418
227727
228031
228334
228637
228928
229219
229504
229799
230115
230426
230720
231018
231310
231599
231886
232184
232505
232808
233102
233391
233681
233972
234265
234577
234894
235186
235480
235764
236058
236353
236655
236965
237275
237566
237852
238140
238441
238746
239049
239359
239659
239943
240229
240518
240822
241131
241433
241740
242030
242316
242610
242906
243223
243525
243823
244121
244409
244692
244991
245298
245611
245916
246198
246497
246792
247076
247383
247690
248002
248289
248573
248875
249164
249461
249774
250083
250386
250673
250958
251255
251555
251851
252155
252464
252751
253037
253329
253637
253942
254247
254549
254841
255138
255418
255711
256027
256326
256627
256924
257217
257503
257796
258097
258416
258717
259011
259300
259591
259885
260175
260486
260797
261099
261387
261676
261974
262266
262570
262881
263188
263480
263762
264049
264350
264651
264950
265266
265569
265854
266143
266432
266741
267046
267344
267652
267945
268225
268513
268812
269126
269437
269731
270031
270317
270606
270897
271204
271522
271826
272113
272407
272699
272979
273288
273594
273902
274202
274491
274785
275077
275372
275675
275985
276289
276573
276861
277161
277459
277764
278069
278375
278673
278950
279242
279548
279849
280149
280455
280752
281044
281328
281625
281933
282243
282543
282837
283134
283417
283706
284009
284323
284625
284924
285211
285507
285800
286093
286406
286717
287015
287307
287591
287886
288179
288479
288796
289101
289392
289681
289969
290270
290570
290870
291184
291481
291762
292047
292340
292646
292955
293257
293569
293858
294139
294432
294731
295044
295348
295644
295942
296235
296519
296810
297116
297429
297729
298026
298320
298606
298899
299199
299509
299817
300107
300397
300695
300978
301278
301585
301900
302204
302491
302783
303071
303367
303673
303976
304286
304577
304859
305158
305458
305759
306064
306370
306671
306954
307240
307538
307842
308146
308451
308746
309046
309331
309620
309929
310242
310538
310837
311131
311418
311704
312002
312320
312631
312926
313215
313502
313806
314093
314397
314718
315020
315303
315592
315879
316175
316479
316783
317101
317400
317683
317969
318263
318567
318872
319178
319482
319769
320056
320342
320646
320956
321259
321563
321862
322143
322430
322725
323037
323344
323646
323945
324232
324516
324809
325116
325430
325735
326023
326320
326608
326896
327198
327503
327818
328117
328398
328696
328989
329281
329590
329899
330204
330491
330775
331075
331377
331674
331980
332282
332581
332862
333148
333459
333758
334061
334364
334662
334961
335246
335532
335841
336148
336446
336744
337039
337332
337620
337921
338236
338543
338838
339126
339413
339705
339997
340304
340619
340920
341217
341505
341797
342090
342390
342701
343009
343303
343589
343874
344172
344473
344778
345091
345400
345683
345970
346258
346563
346868
347168
347478
347773
348059
348345
348639
348952
349257
349557
349862
350156
350434
350725
351029
351348
351645
351935
352238
352521
352813
353115
353421
353735
354031
354317
354614
354904
355198
355502
355809
356114
356401
356688
356988
357281
357584
357891
358201
358493
358777
359066
359365
359665
359968
360275
360579
360868
361152
361446
361755
362059
362360
362660
362959
363241
363525
363828
364139
364442
364745
365040
365332
365617
365906
366220
366529
366828
367126
367413
367703
367995
368292
368610
368919
369212
369506
369794
370092
370386
370687
371004
371302
371584
371872
372162
372470
372776
373078
373388
373681
373960
374249
374548
374858
375161
375464
375769
376054
376338
376630
376937
377253
377554
377847
378149
378435
378719
379015
379326
379636
379931
380222
380520
380814
381105
381412
381720
382023
382312
382601
382895
383188
383489
383796
384105
384401
384685
384978
385278
385581
385885
386186
386494
386780
387061
387358
387660
387962
388269
388569
388864
389153
389439
389748
390054
390352
390656
390948
391238
391523
391816
392131
392441
392745
393039
393326
393618
393908
394208
394526
394833
395120
395406
395697
395997
396289
396596
396914
397212
397499
397786
398078
398379
398679
398985
399295
399583
399866
400154
400455
400767
401074
401376
401678
401959
402246
402538
402846
403153
403459
403758
404054
404338
404625
404924
405238
405546
405840
406138
406426
406710
407010
407315
407625
407933
408218
408515
408807
409096
409404
409712
410020
410313
410592
410893
411189
411484
411791
412098
412402
412686
412973
413275
413575
413878
414184
414484
414776
415060
415345
415654
415962
416264
416570
416862
417152
417438
417734
418048
418353
418651
418946
419236
419526
419815
420119
420436
420740
421032
421325
421613
421904
422201
422512
422820
423116
423406
423693
423993
424286
424589
424903
425209
425498
425785
426070
426373
426678
426979
427287
427588
427868
428158
428453
428763
429067
429368
429679
429964
430247
430536
430835
431148
431451
431752
432053
432337
432621
432920
433228
433539
433840
434134
434429
434714
435002
435304
435615
435926
436219
436511
436808
437099
437394
437697
438005
438305
438590
438880
439175
439470
439775
440087
440392
440682
440969
441262
441562
441866
442171
442472
442775
443058
443340
443643
443952
444256
444563
444860
445157
445441
445724
446036
446346
446646
446945
447234
447529
447815
448109
448428
448735
449031
449320
449611
449908
450200
450499
450817
451119
451405
451692
451982
452285
452592
452897
453210
453502
453781
454068
454363
454667
454972
455279
455585
455873
456155
456446
456750
457060
457363
457665
457961
458246
458535
458829
459140
459447
459746
460045
460337
460627
460920
461221
461535
461836
462125
462422
462711
463001
463303
463609
463921
464216
464501
464800
465091
465384
465696
465998
466301
466590
466873
467172
467469
467773
468086
468389
468686
468970
469254
469557
469864
470160
470469
470767
471054
471338
471633
471942
472248
472552
472853
473146
473436
473721
474020
474334
474638
474934
475224
475518
475813
476104
476414
476729
477028
477318
477604
477899
478191
478493
478808
479113
479405
479694
479983
480282
480583
480890
481201
481498
481782
482069
482360
482665
482969
483270
483582
483876
484163
484449
484744
485059
485362
485658
485962
486247
486528
486828
487129
487440
487746
488040
488334
488620
488908
489208
489522
489829
490129
490419
490708
490994
491291
491596
491912
492215
492498
492792
493090
493380
493684
493988
494299
494589
494870
495167
495466
495767
496078
496383
496682
496968
497250
497551
497854
498157
498460
498757
499057
499345
499630
499938
500245
500547
500846
501137
501431
501721
502012
502329
502634
502926
503220
503511
503802
504094
504400
504717
505022
505311
505596
505888
506180
506480
506790
507100
507404
507690
507975
508156
508479
508780
509085
509402
509690
509971
510258
510557
510862
511171
511477
511783
512070
512352
512641
512948
513256
513558
513863
514155
514436
514726
515024
515337
515647
515945
516243
516535
516821
517111
517418
517733
518033
518322
518618
518906
519198
519503
519808
520119
520413
520698
520995
521285
521579
521891
522196
522499
522784
523070
523368
523666
523970
524276
524581
524882
525166
525451
525752
526052
526355
526658
526959
527247
527536
527835
528142
528445
528748
529044
529338
529622
529908
530216
530529
530831
531129
531418
531712
532005
532297
532612
532922
533221
533514
533800
534091
534385
534684
535003
535308
535593
535882
536176
536476
536767
537077
537388
537686
537966
538254
538550
538854
539160
539468
539781
540068
540349
540637
540938
541248
541551
541856
542156
542438
542722
543016
543329
543639
543938
544238
544532
544821
545110
545410
545721
546024
546317
546614
546903
547192
547495
547802
548120
548415
548698
548995
549285
549578
549884
550191
550499
550791
551074
551370
551663
551967
552272
552579
552875
553159
553446
553746
554048
554350
554652
554955
555249
555532
555828
556134
556438
556742
557041
557337
557624
557912
558205
558522
558825
559127
559418
559714
560003
560289
560604
560914
561215
561502
561795
562085
562377
562673
562993
563300
563591
563879
564050
564371
564666
564968
565283
565586
565874
566162
566451
566754
567049
567352
567677
567973
568253
568540
568833
569140
569445
569746
570057
570347
570619
570917
571217
571532
571836
572136
572433
572719
573002
573299
573610
573919
574213
574506
574809
575097
575387
575692
576006
576311
576602
576894
577191
577481
577768
578081
578390
578690
578973
579270
579564
579860
580167
580476
580783
581070
581352
581649
581946
582249
582555
582861
583163
583453
583734
584037
584341
584642
584941
585239
585531
585817
586107
586420
586727
587026
587323
587619
587908
588194
588495
588809
589112
589410
589699
589992
590279
590576
590883
591199
591500
591790
592078
592373
592664
592962
593277
593585
593880
594166
594451
594751
595049
595353
595671
595967
596253
596544
596832
597134
597437
597739
598051
598340
598623
598914
599215
599531
599824
600133
600432
600717
600999
601292
601601
601907
602210
602514
602806
603089
603383
603681
603996
604304
604595
604889
605182
605466
605766
606071
606378
606683
606976
607269
607565
607856
608162
608469
608779
609069
609350
609649
609936
610209
610524
610847
611156
611440
611723
612026
612328
612630
612933
613232
613524
613816
614101
614400
614716
615018
615317
615612
615905
616188
616485
616802
617106
617403
617696
617985
618275
618565
618876
619186
619488
619784
620073
620361
620650
620951
621266
621574
621867
622158
622446
622744
623044
623346
623652
623940
624233
624530
624825
625126
625426
625728
626047
626340
626623
626911
627207
627515
627822
628123
628422
628709
628997
629284
629590
629900
630205
630507
630800
631087
631377
631671
631984
632295
632583
632879
633179
633462
633756
634061
634374
634680
634970
635266
635555
635843
636148
636456
636757
637052
637344
637639
637932
638231
638537
638847
639152
639438
639722
640025
640326
640614
640927
641231
641526
641810
642099
642406
642710
643015
643316
643613
643909
644189
644476
644787
645100
645399
645695
645989
646278
646570
646875
647187
647491
647791
648077
648362
648651
648950
649263
649575
649872
