263
574
875
1179
1480
1793
2126
2442
2742
3042
3345
3645
3953
4281
4607
4936
5252
5579
5890
6215
6552
6871
7177
7480
7778
8095
8416
8738
9058
9359
9662
9962
10278
10596
10910
11223
11519
11802
12096
12394
12697
12999
13299
13597
13883
14168
14460
14767
15080
15382
15682
15975
16267
16574
16885
17217
17535
17836
18144
18444
18738
19046
19365
19687
19989
20285
20592
20893
21198
21516
21836
22135
22422
22727
23026
23325
23637
23954
24267
24559
24858
25165
25463
25772
26081
26387
26683
26972
27272
27574
27873
28185
28491
28783
29062
29342
29649
29954
30258
30572
30879
31180
31477
31791
32115
32434
32757
33065
33372
33677
33980
34307
34628
34938
35237
35539
35845
36153
36475
36803
37114
37416
37716
38025
38331
38645
38973
39282
39576
39872
40176
40479
40787
41104
41411
41705
41995
42283
42590
42900
43201
43520
43825
44112
44402
44702
45013
45322
45627
45928
46214
46497
46782
47089
47389
47682
47976
48260
48540
48825
49112
49420
49726
50023
50324
50617
50905
51209
51518
51838
52146
52446
52748
53043
53335
53640
53951
54254
54550
54840
55124
55408
55705
56005
56304
56589
56862
57146
57439
57736
58052
58375
58702
59023
59341
59659
59976
60293
60622
60940
61244
61536
61845
62159
62473
62790
63105
63412
63708
64022
64356
64682
65013
65327
65638
65938
66239
66572
66894
67210
67523
67829
68135
68441
68771
69102
69425
69737
70049
70361
70676
71008
71344
71668
71978
72284
72596
72904
73226
73557
73865
74163
74459
74766
75070
75377
75702
76010
76297
76593
76890
77191
77499
77812
78124
78413
78697
78984
79287
79592
79895
80205
80504
80792
81084
81373
81688
81994
82290
82604
82902
83186
83482
83787
84101
84403
84698
84990
85272
85546
85834
86136
86438
86733
87022
87310
87590
87870
88164
88469
88767
89054
89338
89628
89906
90193
90495
90801
91102
91386
91673
91964
92251
92549
92851
93151
93438
93718
94004
94286
94574
94874
95164
95454
95721
95977
96237
96509
96788
97077
97376
97672
97969
98254
98556
98882
99187
99494
99805
100108
100400
100689
101003
101326
101641
101958
102271
102579
102884
103201
103527
103845
104164
104474
104788
105094
105414
105756
106082
106397
106704
107018
107335
107651
107992
108319
108617
108919
109227
109537
109847
110170
110488
110791
111089
111387
111703
112020
112339
112657
112959
113256
113558
113875
114202
114525
114857
115173
115475
115781
116093
116416
116734
117051
117356
117656
117960
118272
118595
118914
119229
119539
119836
120133
120438
120757
121075
121378
121678
121970
122259
122563
122874
123187
123489
123775
124073
124361
124645
124947
125255
125561
125852
126141
126445
126750
127061
127382
127711
128028
128326
128636
128949
129265
129584
129900
130207
130498
130792
131103
131408
131712
132025
132337
132628
132917
133216
133516
133807
134089
134366
134650
134930
135226
135554
135899
136231
136561
136894
137221
137541
137892
138233
138558
138872
139189
139506
139819
140154
140488
140805
141113
141423
141737
142048
142375
142700
143010
143312
143612
143920
144220
144528
144850
145156
145451
145741
146044
146358
146672
146993
147316
147618
147923
148230
148555
148878
149195
149523
149830
150128
150436
150762
151085
151397
151715
152014
152306
152599
152912
153243
153562
153879
154188
154490
154804
155123
155455
155776
156078
156390
156690
156988
157305
157632
157947
158250
158553
158848
159143
159458
159783
160111
160421
160733
161049
161364
161692
162022
162359
162674
162977
163292
163596
163904
164222
164535
164827
165116
165416
165719
166027
166343
166661
166965
167252
167545
167862
168172
168482
168791
169105
169408
169704
170021
170348
170664
170984
171290
171590
171885
172188
172518
172834
173141
173454
173762
174065
174368
174696
175012
175318
175619
175912
176209
176506
176818
177134
177441
177736
178026
178316
178607
178902
179212
179525
179819
180119
180424
180737
181057
181378
181713
182026
182324
182632
182948
183262
183578
183907
184209
184503
184804
185110
185433
185749
186062
186371
186666
186972
187280
187604
187926
188236
188550
188848
189141
189449
189769
190088
190403
190717
191023
191332
191649
191973
192314
192633
192940
193254
193566
193889
194219
194560
194884
195188
195513
195828
196152
196481
196814
197133
197436
197748
198059
198371
198693
199014
199321
199618
199920
200230
200549
200869
201186
201500
201798
202099
202420
202739
203060
203375
203687
203988
204276
204582
204903
205215
205525
205835
206142
206450
206762
207089
207404
207717
208021
208324
208616
208916
209241
209551
209853
210150
210437
210734
211028
211324
211633
211930
212212
212491
212773
213062
213357
213660
213970
214270
214560
214849
215150
215456
215764
216092
216404
216702
216998
217299
217617
217932
218253
218578
218874
219169
219470
219784
220099
220405
220728
221031
221317
221615
221928
222246
222560
222879
223184
223479
223779
224086
224414
224729
225036
225347
225641
225932
226234
226549
226859
227157
227450
227749
228034
228320
228629
228951
229266
229560
229861
230162
230458
230760
231069
231379
231673
231962
232263
232562
232873
233199
233523
233854
234151
234467
234782
235099
235421
235734
236046
236344
236642
236953
237265
237580
237894
238200
238492
238783
239097
239410
239720
240033
240343
240642
240935
241247
241569
241888
242209
242515
242818
243107
243402
243724
244039
244342
244649
244953
245254
245559
245881
246207
246519
246823
247121
247422
247718
248029
248359
248673
248977
249281
249594
249914
250235
250573
250900
251205
251508
251811
252126
252448
252776
253099
253402
253703
254007
254321
254635
254951
255272
255569
255864
256162
256476
256796
257115
257439
257747
258045
258358
258669
258994
259312
259621
259931
260227
260523
260835
261158
261475
261784
262094
262386
262679
262984
263302
263623
263927
264230
264536
264836
265145
265471
265804
266118
266417
266733
267034
267333
267649
267968
268280
268574
268871
269171
269467
269777
270093
270410
270702
270990
271296
271603
271911
272224
272539
272844
273135
273439
273755
274070
274395
274715
275031
275330
275629
275960
276291
276596
276903
277205
277489
277770
278077
278395
278716
279032
279340
279656
279966
280298
280636
280963
281292
281607
281923
282240
282568
282910
283230
283548
283862
284181
284494
284821
285161
285486
285791
286100
286420
286739
287062
287401
287719
288026
288331
288650
288976
289304
289644
289960
290261
290568
290877
291196
291519
291844
292162
292458
292762
293077
293407
293728
294048
294367
294666
294957
295260
295588
295907
296215
296531
296834
297131
297439
297756
298084
298406
298714
299024
299324
299642
299969
300300
300616
300923
301233
301535
301840
302164
302496
302812
303114
303431
303739
304049
304372
304703
305024
305328
305642
305964
306285
306620
306953
307281
307578
307881
308195
308510
308831
309150
309468
309768
310075
310398
310723
311052
311380
311702
312019
312326
312660
312985
313314
313661
313991
314313
314629
314968
315303
315630
315954
316270
316574
316894
317235
317573
317902
318221
318547
318868
319185
319525
319852
320171
320479
320794
321113
321436
321778
322109
322418
322729
323038
323352
323679
324020
324350
324655
324956
325261
325564
325859
326158
326464
326756
327041
327335
327648
327977
328297
328633
328956
329267
329580
329901
330239
330564
330883
331190
331476
331770
332076
332397
332715
333030
333352
333656
333959
334277
334611
334930
335230
335541
335841
336144
336462
336785
337118
337433
337742
338055
338366
338698
339030
339366
339696
340015
340346
340676
341012
341348
341688
342001
342321
342644
342972
343307
343637
343966
344276
344586
344901
345218
345546
345864
346180
346480
346777
347092
347415
347740
348075
348409
348731
349049
349390
349724
350057
350381
350696
351001
351304
351637
351957
352270
352582
352888
353190
353492
353812
354141
354463
354776
355078
355383
355689
356004
356334
356656
356967
357267
357581
357888
358204
358543
358862
359173
359475
359782
360097
360415
360750
361077
361393
361703
362012
362343
362670
363000
363332
363647
363955
364277
364607
364934
365271
365600
365904
366214
366533
366860
367177
367497
367811
368098
368392
368699
369021
369335
369646
369964
370266
370555
370859
371191
371519
371841
372162
372474
372772
373083
373404
373730
374036
374344
374652
374946
375252
375575
375900
376214
376518
376835
377139
377444
377770
378104
378421
378726
379040
379356
379671
379998
380328
380650
380951
381257
381566
381871
382192
382510
382828
383127
383418
383737
384057
384380
384705
385031
385344
385646
385965
386289
386607
386919
387230
387533
387830
388141
388467
388786
389110
389425
389738
390035
390340
390675
390993
391299
391601
391896
392192
392476
392765
393052
393322
393579
393829
394080
394326
394566
394807
395066
395319
395567
395804
396036
396273
396519
396763
397015
397288
397571
397846
398113
398386
398673
398971
399276
399591
399913
400220
400523
400831
401159
401489
401830
402166
402482
402805
403134
403477
403811
404152
404484
404794
405102
405407
405726
406045
406359
406687
406995
407305
407630
407956
408288
408616
408938
409231
409522
409832
410175
410499
410818
411141
411455
411756
412070
412404
412732
413023
413301
413573
413834
414091
414359
414630
414914
415107
415282
415414
415686
415983
416225
416499
416789
417084
417373
417689
418174
418676
418976
419381
419732
419935
420394
420670
420947
421266
421720
421923
422553
422729
422970
423521
424029
424226
424383
425171
425750
426141
426483
426850
427427
427781
428058
428435
429201
429849
430089
430508
431165
431393
431767
432362
432587
432866
433137
433404
433670
433956
434244
434528
434806
435079
435357
435634
435913
436198
436337
436484
436939
437256
437512
437796
438039
438305
438590
438916
439128
439405
439684
439981
440123
440269
440572
440895
441121
441187
441361
441498
441812
442131
442479
442663
442812
443155
443332
443476
443803
444093
444652
445130
445315
445768
446085
446428
446744
447000
447406
447772
448357
448522
448679
448939
449100
449418
449653
449982
450278
450605
450895
451215
451424
451885
452086
452452
452747
453101
453349
453604
453985
454278
454584
454886
455198
455518
455713
455915
456172
456482
456799
457134
457444
457788
458120
458450
458770
459091
459420
459754
460098
460438
460764
461078
461403
461738
462064
462387
462712
463033
463342
463666
464004
464341
464672
464992
465297
465596
465914
466237
466556
466875
467181
467480
467768
468058
468376
468696
468998
469299
469607
469910
470221
470563
470901
471222
471535
471845
472154
472463
472793
473114
473414
473716
474014
474317
474615
474921
475248
475561
475856
476161
476487
476789
477079
477379
477664
477932
478194
478451
478717
478988
479449
479826
480099
480465
480699
480949
481433
481692
481928
482406
482673
483060
483471
483732
484302
484507
484796
485121
485478
485783
485945
486263
486836
487062
487387
487554
487731
488227
488995
489438
489637
490283
490729
491067
491205
491372
491827
492373
492611
493288
493689
493909
494222
494551
494773
495194
495505
495902
496059
496205
496415
496808
496910
497164
497447
497731
498055
498371
498681
498996
499339
499651
499794
500122
500270
500596
500775
500915
501324
501568
501879
502187
502533
502693
502863
503194
503526
503882
504008
504173
504494
504820
505312
505488
505826
506139
506454
506758
507103
507431
507752
508068
508382
508680
508972
509295
509615
509854
510278
510565
510889
511069
511403
511523
511873
512194
512370
512503
512811
513114
513403
513794
514006
514308
514608
514909
515261
515564
515898
516090
516265
516612
516935
517254
517594
517922
518254
518603
518919
519224
519535
519860
520185
520510
520686
520852
521167
521471
521777
522100
522423
522730
523046
523344
523548
523601
523923
524221
524547
524850
525199
525512
525807
526115
526438
526769
527100
527428
527751
528043
528344
528658
528996
529320
529644
529982
530294
530608
530939
531288
531621
531940
532271
532588
532912
533253
533627
533937
534254
534580
534928
535217
535548
535870
536177
536482
536802
537120
537456
537761
538102
538400
538680
538976
539264
539559
539887
540197
540517
540827
541145
541474
541805
542154
542249
542483
542805
543117
543395
543758
544083
544414
544740
545051
545357
545671
546007
546333
546670
546990
547317
547623
547937
548271
548596
548919
549236
549555
549858
550174
550508
550834
551162
551471
551781
552078
552392
552731
553048
553359
553663
553967
554268
554578
554916
555240
555545
555850
556160
556477
556798
557141
557483
557814
558133
558480
558792
559117
559465
559799
560107
560405
560712
561034
561357
561684
562008
562313
562622
562928
563240
563559
563883
564202
564507
564818
565128
565456
565780
566115
566447
566751
567064
567387
567725
568052
568381
568708
569008
569308
569625
569952
570275
570588
570907
571216
571514
571816
572138
572459
572762
573065
573359
573655
573965
574286
574614
574929
575230
575536
575835
576152
576475
576801
577114
577421
577737
578053
578371
578711
579056
579376
579682
580009
580322
580632
582181
582497
582815
583142
583464
583779
584081
584390
584706
585031
585366
585698
586022
586335
586657
586986
587314
587648
587965
588281
588582
588898
589229
589549
589876
590194
590508
590809
591119
591453
591787
592116
592441
592760
593074
593397
593736
594069
594401
594718
595030
595334
595646
595979
596299
596612
596919
597224
597531
597847
598185
598508
598819
599130
599446
599759
600081
600426
600756
601082
601393
601719
602054
602389
602741
603072
603384
603699
604023
604347
604666
605002
605322
605621
605928
606248
606575
606909
607246
607562
607867
608177
608504
608833
609152
609484
609789
610084
610382
610681
611000
611312
611626
611955
612262
612571
612896
613238
613565
613887
614209
614520
614837
615166
615508
615832
616146
616461
616766
617083
617417
617763
618100
618422
618747
619061
619386
619724
620067
620390
620707
621029
621345
621678
622016
622355
622669
622977
623287
623587
623897
624199
624502
624797
625081
625387
625693
626013
626348
626682
626997
627303
627623
627955
628287
628623
628963
629282
629586
629908
630232
630560
630885
631203
631514
631815
632129
632449
632765
633085
633391
633687
633979
634279
634603
634933
635266
635595
635922
636239
636572
636924
637266
637605
637931
638263
638586
638925
639268
639598
639925
640238
640554
640871
641200
641532
641852
642160
642465
642778
643089
643414
643746
644059
644366
644670
644982
645288
645604
645949
646270
646577
646892
647215
647548
647881
648228
648558
648873
649196
649536
649876
