326
630
917
1209
1473
1755
2072
2375
2663
2953
3244
3519
3802
4115
4419
4714
5009
5293
5571
5860
6151
6462
6758
7053
7346
7619
7917
8246
8529
8815
9105
9384
9674
9962
10324
10531
10858
11149
11433
11721
12012
12294
12580
12888
13189
13486
13776
14060
14347
14627
14934
15242
15530
15817
16113
16388
16678
16971
17280
17579
17876
18164
18452
18733
19016
19326
19623
19918
20190
20493
20788
21060
21368
21681
21981
22237
22528
22788
23234
23430
23704
24003
24316
24608
24877
25167
25447
25757
26057
26345
26641
26939
27185
27484
27783
28085
28390
28689
28976
29264
29517
29817
30135
30424
30727
31023
31317
31599
31874
32184
32448
32736
33053
33341
33632
33910
34212
34512
34807
35106
35361
35659
35951
36230
36543
36839
37148
37411
37717
37986
38265
38579
38884
39186
39477
39793
40059
40307
40632
40760
40925
41235
41541
41828
42128
42384
42661
42955
43246
43556
43689
43859
44131
44468
44709
45016
45315
45485
45620
45911
46182
46458
46743
47044
47351
47689
47951
48079
48249
48544
48830
49084
49404
49700
49942
50244
50547
50845
51100
51398
51705
52008
52314
52610
52890
53173
53458
53768
54052
54296
54586
54880
55170
55456
55764
56065
56359
56656
56947
57247
57524
57805
58108
58408
58670
58953
59269
59549
59823
60139
60439
60741
61059
61317
61607
61853
62127
62452
62747
63056
63345
63645
63925
64200
64505
64803
65058
65346
65472
65637
65948
66172
66522
66826
67114
67415
67718
68015
68205
68563
68864
69131
69470
69707
69994
70276
70561
70865
71170
71466
71761
72066
72354
72632
72925
73224
73404
73516
73822
74116
74403
74676
75076
75257
75546
75855
76149
76430
76703
76971
77258
77552
77837
78133
78430
78707
78993
79260
79556
79848
80139
80434
80725
81002
81270
81557
81848
82137
82349
82653
82944
83223
83499
83801
84094
84387
84688
84987
85273
85549
85843
86144
86434
86725
87026
87316
87591
87882
88183
88479
88779
89078
89375
89649
89925
90217
90508
90808
91107
91409
91692
91969
92266
92510
92824
93124
93423
93736
93989
94269
94605
94888
95175
95477
95785
96063
96351
96647
96921
97259
97436
97820
98102
98387
98670
98954
99127
99566
99866
100118
100350
100626
100905
101189
101481
101768
102067
102351
102619
102896
103180
103465
103760
104032
104342
104616
104884
105175
105449
105745
106042
106330
106623
106900
107178
107475
107576
107762
108060
108361
108666
108945
109224
109518
109839
110101
110399
110704
110997
111220
111686
111881
112111
112440
112755
113051
113332
113613
113909
114200
114494
114815
115116
115376
115660
115950
116264
116561
116845
117167
117472
117734
118010
118308
118549
118703
118913
119215
119493
119787
120054
120381
120639
120929
121230
121538
121829
122108
122403
122688
122971
123271
123578
123876
124155
124446
124729
125022
125328
125622
125926
126211
126493
126779
127067
127364
127664
127973
128255
128538
128832
129107
129382
129669
129953
130239
130504
130773
131059
131337
131630
131735
131990
132199
132481
132789
133044
133337
133629
133920
134221
134531
134808
135091
135386
135671
135967
136269
136573
136867
137264
137433
137723
138024
138310
138613
138898
139188
139479
139775
140056
140362
140665
140966
141256
141537
141824
142107
142395
142694
143002
143293
143565
143856
144143
144435
144736
145045
145345
145629
145923
146214
146498
146790
147097
147404
147690
147972
148257
148545
148832
149134
149445
149739
150015
150311
150597
150882
151176
151489
151742
151998
152288
152581
152863
153161
153323
153462
153769
154062
154345
154638
154929
155213
155508
155822
156125
156401
156704
156987
157264
157557
157861
158164
158453
158703
158990
159278
159583
159889
160204
160491
160771
161062
161347
161629
161929
162233
162538
162822
163120
163406
163687
163933
164227
164543
164829
165114
165410
165696
165987
166290
166599
166884
167169
167466
167757
168033
168330
168639
168938
169230
169511
169802
170079
170372
170631
170914
171219
171499
171792
172075
172353
172651
172960
173262
173555
173848
174134
174408
174699
175005
175313
175609
175895
176186
176461
176758
177049
177360
177659
177943
178186
178465
178743
179044
179355
179663
179949
180251
180539
180802
181109
181400
181729
181890
182006
182300
182573
182850
183137
183440
183751
184009
184284
184588
184873
185154
185446
185762
186063
186337
186654
186933
187220
187505
187799
188115
188399
188688
188985
189264
189542
189823
190081
190393
190690
190989
191274
191558
191844
192132
192450
192742
193034
193329
193602
193891
194186
194498
194793
195051
195348
195639
195924
196216
196520
196818
197110
197409
197695
197974
198266
198558
198870
199168
199418
199712
199998
200288
200587
200892
201183
201483
201786
202066
202345
202628
202932
203234
203535
203828
204081
204343
204637
204940
205250
205550
205831
206132
206406
206693
206988
207296
207594
207888
208184
208470
208746
209000
209285
209599
209897
210207
210500
210770
211058
211346
211658
211950
212250
212546
212821
213097
213386
213667
213954
214264
214577
214863
215124
215415
215708
216018
216318
216614
216910
217183
217445
217717
218041
218351
218623
218941
219219
219497
219777
220080
220388
220680
220988
221261
221538
221833
222125
222430
222731
223029
223329
223604
223891
224176
224483
224748
225042
225357
225650
225918
226205
226501
226804
227103
227411
227699
227979
228262
228547
228829
229121
229426
229735
230017
230293
230584
230883
231186
231477
231792
232075
232341
232625
232923
233199
233486
233803
234105
234382
234663
234948
235250
235553
235850
236153
236431
236716
237000
237281
237585
237891
238208
238492
238759
239045
239343
239642
239933
240245
240540
240800
241082
241384
241685
241977
242276
242581
242865
243155
243430
243728
244031
244298
244615
244914
245190
245469
245763
246065
246366
246677
246973
247247
247526
247779
248082
248393
248696
248989
249275
249563
249847
250148
250442
250733
251048
251324
251573
251870
252168
252466
252755
253059
253364
253648
253933
254219
254513
254805
255093
255405
255702
255974
256257
256554
256851
257142
257458
257759
258031
258295
258591
258901
259180
259496
259799
260083
260366
260644
260949
261224
261488
261813
262102
262389
262673
262963
263254
263550
263852
264142
264428
264719
264998
265294
265588
265897
266201
266492
266774
267050
267329
267622
267936
268246
268518
268815
269102
269395
269686
269973
270293
270589
270867
271110
271406
271699
272000
272314
272596
272900
273179
273458
273758
274053
274347
274658
274951
275203
275494
275797
276086
276383
276692
276987
277271
277557
277844
278133
278407
278718
279036
279309
279603
279889
280181
280468
280763
281076
281356
281647
281947
282222
282515
282809
283125
283432
283707
283991
284267
284554
284858
285167
285470
285764
286048
286331
286622
286904
287192
287508
287804
288091
288381
288665
288951
289242
289559
289860
290122
290412
290713
291003
291282
291596
291901
292189
292473
292758
293044
293294
293607
293925
294208
294514
294796
295086
295363
295650
295964
296263
296524
296820
297124
297410
297683
297997
298307
298597
298884
299173
299433
299726
300043
300337
300637
300936
301221
301509
301791
302065
302379
302687
302974
303267
303553
303839
304122
304436
304721
305026
305314
305599
305891
306171
306468
306777
307061
307357
307641
307937
308220
308503
308815
309114
309410
309684
309982
310280
310550
310862
311173
311461
311750
312038
312300
312587
312905
313195
313501
313801
314090
314379
314657
314943
315237
315543
315846
316134
316432
316707
316989
317302
317600
317875
318170
318475
318746
319035
319335
319639
319940
320240
320522
320802
321089
321377
321686
321981
322285
322572
322868
323130
323421
323710
324024
324317
324614
324913
325191
325463
325765
326065
326362
326665
326957
327246
327520
327804
328110
328403
328711
329003
329301
329572
329859
330148
330453
330737
331046
331346
331631
331899
332204
332486
332779
333093
333345
333663
333944
334240
334534
334816
335119
335427
335712
335995
336282
336578
336871
337173
337455
337758
338049
338314
338616
338919
339216
339512
339815
340105
340363
340670
340958
341263
341562
341863
342154
342437
342719
343003
343307
343601
343910
344210
344492
344764
345070
345349
345645
345961
346252
346540
346814
347114
347406
347703
347991
348304
348588
348871
349156
349451
349743
350034
350335
350655
350927
351207
351505
351793
352083
352373
352677
352981
353246
353547
353841
354126
354427
354732
354996
355281
355579
355871
356165
356470
356769
357069
357350
357618
357903
358199
358512
358804
359115
359400
359681
359979
360258
360548
360813
361131
361440
361706
362001
362294
362577
362877
363180
363462
363752
364054
364337
364623
364924
365231
365536
365829
366087
366382
366684
366958
367269
367572
367869
368150
368442
368718
369017
369305
369617
369917
370207
370488
370777
371050
371365
371657
371971
372256
372538
372835
373120
373392
373711
374009
374308
374595
374887
375169
375454
375726
376041
376349
376637
376930
377216
377503
377796
378099
378381
378677
378973
379251
379542
379830
380132
380444
380743
381021
381289
381587
381856
382162
382475
382777
383063
383352
383640
383894
384194
384516
384809
385106
385395
385684
385964
386263
386544
386859
387160
387440
387738
388020
388295
388592
388910
389197
389492
389788
390075
390350
390638
390943
391237
391529
391831
392117
392396
392693
392984
393298
393579
393883
394156
394449
394737
395029
395341
395643
395914
396219
396509
396778
397068
397375
397683
397979
398273
398547
398831
399107
399411
399724
400017
400317
400607
400887
401152
401458
401772
402075
402360
402661
402942
403222
403516
403811
404094
404394
404713
404993
405267
405554
405853
406155
406455
406751
407028
407321
407602
407892
408201
408511
408800
409098
409359
409640
409946
410242
410551
410841
411149
411437
411706
411979
412294
412588
412883
413190
413481
413757
414042
414324
414638
414927
415227
415527
415806
416089
416366
416668
416984
417269
417581
417865
418137
418422
418709
419010
419320
419625
419918
420190
420469
420763
421064
421337
421657
421962
422236
422519
422805
423105
423407
423704
424007
424263
424555
424844
425147
425448
425740
426057
426339
426616
426874
427176
427483
427776
428089
428387
428668
428949
429233
429520
429819
430128
430431
430715
430999
431283
431581
431879
432174
432495
432778
433054
433338
433627
433922
434210
434531
434823
435104
435388
435674
435970
436265
436565
436886
437160
437447
437723
438019
438313
438615
438916
439212
439487
439773
440075
440362
440654
440956
441252
441542
441815
442110
442402
442690
443006
443310
443564
443863
444156
444441
444731
445045
445346
445637
445921
446182
446483
446777
447070
447390
447684
447966
448248
448537
448828
449106
449434
449742
450015
450300
450589
450871
451157
451467
451756
452057
452357
452630
452920
453211
453509
453821
454113
454391
454685
454968
455263
455558
455875
456169
456455
456722
457017
457297
457594
457913
458219
458500
458785
459060
459352
459637
459944
460257
460556
460853
461133
461405
461703
461983
462307
462603
462894
463177
463468
463736
464041
464349
464655
464947
465230
465515
465800
466054
466379
466692
466983
467273
467559
467844
468132
468421
468700
469006
469316
469594
469889
470168
470454
470766
471064
471352
471613
471921
472210
472480
472793
473095
473392
473680
473969
474234
474518
474835
475133
475431
475738
476021
476307
476588
476860
477174
477462
477769
478064
478361
478640
478918
479212
479511
479823
480110
480408
480689
480969
481272
481569
481856
482166
482449
482741
483020
483307
483613
483900
484202
484492
484800
485076
485358
485662
485956
486243
486554
486845
487124
487402
487705
488003
488294
488572
488891
489175
489452
489754
490043
490343
490646
490907
491209
491500
491781
492078
492373
492676
492977
493275
493554
493801
494112
494415
494713
495007
495307
495591
495869
496169
496467
496728
497043
497351
497638
497923
498206
498496
498789
499095
499379
499681
499975
500247
500545
500839
501134
501440
501739
502026
502289
502599
502885
503169
503473
503780
504075
504356
504632
504932
505213
505521
505827
506129
506405
506689
506965
507255
507575
507866
508179
508459
508737
509036
509322
509597
509915
510222
510504
510788
511087
511371
511653
511938
512247
512555
512835
513128
513422
513700
513998
514306
514575
514875
515159
515449
515735
516031
516332
516646
516936
517198
517474
517771
518057
518354
518671
518967
519249
519543
519828
520095
520397
520715
521004
521302
521589
521881
522164
522454
522760
523058
523357
523640
523934
524220
524502
524801
525116
525396
525685
525989
526270
526547
526847
527151
527456
527729
528021
528327
528607
528892
529193
529507
529798
530087
530357
530647
530928
531238
531549
531847
532131
532423
532682
532969
533284
533588
533887
534171
534471
534753
535030
535291
535618
535922
536217
536509
536799
537079
537363
537659
537929
538234
538538
538828
539102
539386
539683
539993
540286
540557
540853
541146
541414
541710
542020
542327
542615
542923
543207
543460
543758
544060
544365
544665
544963
545257
545533
545819
546093
546414
546712
547008
547308
547581
547865
548158
548458
548761
549052
549361
549647
549918
550200
550502
550802
551109
551403
551699
551977
552255
552551
552840
553151
553449
553748
554030
554317
554596
554902
555182
555495
555796
556080
556362
556646
556943
557248
557515
557838
558127
558408
558684
558988
559285
559579
559888
560156
560445
560733
561016
561313
561611
561916
562219
562497
562782
563031
563338
563642
563938
564249
564538
564818
565100
565394
565691
565954
566282
566589
566861
567137
567432
567724
568020
568330
568619
568903
569197
569476
569769
570064
570367
570668
570958
571230
571515
571823
572108
572408
572724
573015
573295
573577
573856
574162
574450
574767
575069
575350
575632
575916
576190
576493
576793
577107
577399
577689
577971
578255
578520
578827
579163
579454
579739
580024
580316
580601
580890
581184
581491
581785
582072
582361
582644
582932
583257
583558
583845
584089
584379
584679
584952
585265
585573
585875
586165
586445
586734
586989
587292
587615
587898
588197
588485
588780
589064
589343
589660
589939
590221
590528
590802
591102
591380
591690
591996
592286
592581
592850
593146
593417
593721
594033
594330
594629
594914
595207
595471
595775
596077
596376
596679
596971
597256
597537
597801
598118
598437
598713
599011
599305
599592
599865
600173
600459
600771
601058
601347
601639
601922
602208
602516
602800
603098
603402
603681
603973
604261
604559
604854
605157
605453
605717
606006
606297
606598
606895
607193
607490
607790
608074
608346
608634
608934
609242
609536
609833
610124
610400
610688
610989
611291
611592
611873
612166
612455
612736
613037
613331
613629
613930
614231
614514
614771
615074
615386
615675
615975
616276
616564
616840
617137
617433
617711
618021
618318
618614
618896
619181
619474
619771
620055
620349
620665
620937
621224
621519
621811
622111
622414
622700
622980
623283
623573
623858
624152
624455
624763
625055
625305
625601
625915
626184
626493
626807
627098
627376
627671
627960
628231
628530
628850
629143
629422
629715
630001
630288
630586
630887
631173
631461
631754
632049
632333
632622
632923
633240
633531
633810
634109
634368
634652
634967
635283
635573
635861
636152
636442
636719
637015
637307
637610
637913
638199
638485
638770
639069
639371
639679
639969
640241
640545
640826
641106
641411
641722
642018
642303
642586
642868
643166
643448
643759
644063
644352
644648
644934
645195
645491
645806
646104
646402
646693
646983
647259
647556
647836
648162
648449
648739
649037
649315
649594
649889
