316
617
909
1193
1471
1750
2069
2368
2653
2945
3235
3518
3792
4104
4410
4708
5003
5285
5564
5867
6143
6453
6749
7045
7336
7616
7913
8187
8489
8799
9092
9387
9675
9950
10240
10542
10840
11138
11431
11722
12012
12292
12578
12889
13189
13480
13781
14056
14344
14619
14934
15241
15530
15812
16114
16403
16674
16969
17276
17580
17879
18168
18445
18732
19012
19327
19626
19915
20187
20491
20792
21062
21363
21668
21962
22281
22541
22815
23103
23406
23695
23999
24304
24592
24874
25175
25438
25747
26049
26341
26634
26926
27182
27485
27776
28085
28380
28676
28964
29251
29515
29808
30138
30421
30717
31011
31304
31581
31861
32168
32442
32732
33054
33329
33617
33896
34194
34499
34795
35093
35357
35660
35934
36223
36527
36829
37124
37414
37708
37974
38274
38574
38871
39165
39464
39755
40038
40299
40604
40907
41207
41511
41819
42107
42376
42651
42948
43242
43555
43839
44164
44384
44697
45011
45312
45605
45901
46177
46455
46742
47037
47342
47653
47921
48532
48807
49085
49397
49681
49935
50249
50553
50834
51098
51390
51688
51990
52295
52588
52875
53155
53444
53744
54036
54293
54581
54877
55171
55460
55757
56048
56344
56645
56945
57234
57522
57788
58093
58392
58666
58948
59263
59539
59817
60121
60419
60711
61029
61108
61319
61597
61853
62125
62453
62734
63038
63333
63623
63901
64184
64485
64781
65056
65335
65649
65937
66209
66504
66812
67098
67395
67692
67981
68257
68549
68845
69141
69445
69703
69993
70277
70560
70867
71169
71467
71766
72066
72350
72625
72919
73223
73516
73813
74111
74404
74676
74976
75262
75548
75846
76142
76425
76697
76965
77254
77546
77836
78131
78423
78705
78980
79258
79552
79842
80134
80428
80719
80995
81263
81550
81842
82130
82328
82637
82934
83210
83485
83788
84082
84373
84674
84973
85258
85537
85829
86126
86424
86724
87021
87312
87585
87871
88175
88478
88784
89082
89377
89649
89924
90221
90515
90805
91104
91405
91691
91964
92264
92504
92815
93120
93419
93719
93996
94270
94566
94859
95156
95459
95762
96049
96334
96622
96923
97207
97507
97810
98098
98376
98666
98950
99553
99853
100114
100348
100622
100901
101185
101476
101763
102059
102345
102614
102890
103174
103462
103750
104037
104337
104610
104879
105171
105447
105739
106037
106326
106623
106896
107173
107470
107761
108055
108360
108658
108940
109221
109515
109813
110103
110391
110711
110986
111259
111565
111730
111860
112063
112452
112750
112932
113101
113319
113616
113908
114193
114503
114953
115130
115405
115654
115955
116240
116534
116838
117139
117454
117740
118009
118274
118577
118886
119188
119487
119764
120043
120345
120627
120923
121229
121530
121816
122091
122387
122679
122966
123262
123569
123868
124149
124436
124725
125012
125315
125618
125922
126203
126480
126774
127058
127352
127655
127963
128257
128526
128835
129102
129377
129663
129948
130233
130499
130768
131054
131327
131609
131899
132200
132485
132759
133045
133332
133621
133914
134216
134522
134802
135082
135383
135673
135971
136278
136579
136876
137150
137437
137728
138016
138304
138609
138909
139194
139477
139766
140055
140351
140654
140958
141260
141540
141827
142109
142397
142692
143000
143288
143559
143855
144141
144429
144730
145046
145346
145633
145925
146196
146481
146785
147085
147390
147677
147958
148248
148533
148823
149125
149434
149726
150006
150301
150587
150868
151164
151474
151737
151992
152284
152572
152858
153151
153452
153760
154060
154345
154639
154928
155199
155497
155811
156110
156391
156684
156972
157247
157544
157848
158152
158442
158698
158984
159275
159583
159893
160191
160479
160760
161050
161334
161614
161914
162224
162524
162809
163100
163388
163669
163929
164222
164534
164829
165115
165411
165699
165987
166275
166578
166882
167159
167453
167739
168017
168313
168619
168920
169211
169496
169784
170066
170360
170627
170909
171211
171497
171787
172067
172353
172651
172961
173263
173555
173850
174128
174394
174694
174992
175300
175592
175878
176167
176445
176738
177037
177347
177642
177924
178183
178460
178739
179038
179356
179663
179951
180252
180519
180799
181089
181386
181692
181983
182277
182565
182843
183130
183428
183741
184005
184278
184582
184871
185155
185447
185757
186045
186340
186632
186916
187197
187485
187782
188094
188387
188675
188968
189246
189528
189817
190076
190385
190690
190991
191279
191558
191828
192131
192437
192730
193021
193314
193590
193875
194173
194486
194782
195047
195344
195639
195926
196200
196507
196809
197099
197395
197684
197961
198250
198547
198854
199152
199414
199707
199999
200290
200584
200880
201180
201469
201769
202049
202323
202610
202916
203218
203512
203813
204076
204338
204631
204945
205254
205534
205829
206122
206397
206683
206970
207281
207582
207874
208176
208461
208734
208994
209280
209596
209897
210211
210482
210759
211049
211335
211642
211937
212234
212532
212810
213087
213372
213662
213949
214265
214579
214843
215126
215403
215698
216006
216303
216603
216894
217168
217441
217712
218042
218339
218624
218926
219208
219482
219766
220067
220372
220665
220970
221253
221538
221836
222112
222417
222715
223013
223313
223590
223871
224158
224466
224742
225037
225359
225653
225910
226195
226491
226793
227089
227399
227687
227966
228248
228534
228823
229116
229424
229738
230004
230283
230573
230873
231174
231468
231779
232064
232332
232612
232910
233195
233481
233803
234109
234369
234656
234939
235240
235538
235841
236139
236419
236702
236985
237278
237581
237893
238194
238483
238749
239031
239330
239627
239923
240233
240528
240795
241077
241384
241666
241964
242269
242567
242850
243134
243419
243716
244014
244294
244608
244916
245175
245457
245752
246052
246348
246660
246957
247230
247511
247775
248080
248395
248681
248985
249265
249546
249833
250132
250428
250722
251034
251319
251568
251871
252162
252448
252745
253051
253352
253637
253917
254202
254500
254793
255087
255405
255704
255970
256249
256542
256839
257132
257446
257744
258019
258292
258593
258890
259180
259487
259785
260072
260352
260631
260928
261222
261483
261807
262093
262371
262658
262949
263240
263535
263847
264133
264431
264696
264989
265282
265573
265886
266190
266476
266759
267041
267323
267616
267939
268231
268521
268805
269087
269379
269670
269962
270281
270577
270855
271105
271402
271700
272003
272296
272600
272885
273170
273446
273741
274032
274334
274643
274934
275198
275486
275801
276070
276365
276679
276973
277254
277538
277826
278113
278402
278714
279038
279310
279592
279874
280165
280450
280753
281060
281354
281642
281929
282221
282505
282795
283113
283415
283693
283976
284266
284556
284840
285154
285459
285748
286033
286315
286605
286889
287189
287508
287789
288079
288365
288652
288938
289228
289544
289843
290117
290404
290714
290986
291272
291584
291889
292180
292463
292744
293030
293290
293607
293929
294206
294498
294780
295071
295350
295639
295952
296250
296519
296821
297105
297391
297672
297983
298291
298582
298867
299153
299431
299727
300021
300330
300626
300922
301204
301492
301775
302067
302380
302668
302964
303247
303540
303824
304105
304418
304724
305023
305300
305589
305877
306156
306457
306763
307062
307359
307640
307926
308203
308494
308803
309097
309398
309679
309984
310260
310541
310850
311155
311445
311735
312026
312296
312582
312906
313199
313490
313787
314076
314364
314642
314930
315230
315544
315830
316123
316417
316696
316971
317284
317588
317868
318164
318479
318748
319025
319321
319626
319923
320221
320508
320803
321089
321365
321671
321967
322266
322559
322849
323132
323423
323712
324011
324306
324600
324896
325178
325465
325766
326060
326352
326648
326942
327230
327507
327806
328111
328397
328697
328991
329283
329557
329842
330150
330455
330740
331034
331332
331611
331887
332187
332482
332780
333079
333359
333650
333931
334225
334522
334810
335111
335431
335709
335986
336269
336565
336858
337157
337450
337753
338052
338315
338611
338903
339200
339500
339800
340084
340361
340672
340955
341249
341550
341851
342143
342422
342705
342997
343310
343598
343895
344199
344477
344752
345055
345350
345646
345942
346243
346527
346804
347099
347393
347686
347994
348284
348578
348858
349142
349438
349732
350033
350334
350635
350914
351192
351488
351778
352071
352372
352672
352971
353237
353533
353827
354114
354413
354719
354991
355282
355568
355857
356150
356457
356752
357055
357336
357615
357898
358200
358511
358799
359103
359385
359664
359961
360245
360534
360809
361132
361418
361696
361990
362281
362564
362863
363165
363457
363750
364053
364325
364608
364911
365211
365521
365812
366089
366379
366665
366949
367252
367560
367854
368135
368429
368720
369004
369296
369602
369905
370191
370474
370763
371052
371349
371648
371954
372243
372523
372817
373103
373394
373707
374000
374296
374575
374871
375158
375437
375722
376044
376337
376625
376916
377202
377485
377783
378086
378376
378669
378976
379253
379528
379816
380121
380431
380727
381008
381284
381587
381858
382150
382461
382763
383045
383339
383627
383889
384190
384516
384803
385095
385383
385669
385952
386245
386545
386860
387144
387430
387723
388006
388283
388580
388892
389199
389476
389775
390059
390337
390624
390929
391239
391531
391820
392105
392386
392674
392971
393280
393582
393884
394160
394440
394723
395013
395328
395629
395907
396220
396490
396768
397058
397363
397666
397962
398261
398548
398836
399111
399404
399710
400005
400303
400595
400870
401148
401460
401761
402062
402349
402649
402933
403204
403491
403802
404089
404396
404698
404984
405258
405544
405838
406144
406440
406737
407028
407322
407592
407882
408190
408490
408785
409083
409356
409634
409928
410234
410535
410829
411134
411419
411689
411981
412287
412577
412869
413177
413467
413742
414026
414326
414617
414916
415215
415512
415791
416076
416369
416668
416965
417261
417566
417852
418124
418409
418704
419002
419307
419615
419907
420182
420456
420751
421052
421331
421658
421964
422226
422510
422789
423092
423393
423691
423993
424258
424557
424833
425134
425431
425728
426041
426327
426598
426869
427178
427471
427766
428077
428375
428654
428936
429220
429520
429821
430120
430422
430702
430989
431273
431568
431865
432177
432472
432765
433039
433319
433615
433909
434213
434534
434818
435094
435376
435659
435953
436249
436566
436862
437146
437428
437712
438007
438300
438598
438918
439194
439475
439760
440053
440347
440641
440956
441253
441525
441805
442096
442389
442680
442994
443295
443559
443868
444135
444429
444720
445026
445331
445623
445912
446178
446483
446765
447061
447376
447673
447951
448234
448525
448815
449103
449438
449721
450003
450282
450572
450856
451144
451456
451751
452058
452338
452618
452908
453199
453496
453805
454100
454393
454688
454966
455248
455541
455854
456153
456437
456724
457019
457299
457580
457896
458197
458486
458771
459062
459354
459628
459933
460240
460535
460834
461114
461408
461685
461974
462289
462588
462875
463162
463453
463738
464022
464338
464639
464929
465215
465501
465785
466049
466380
466672
466968
467262
467545
467832
468115
468409
468696
469007
469303
469585
469875
470154
470438
470751
471051
471338
471608
471923
472192
472471
472778
473082
473376
473667
473954
474229
474511
474826
475120
475417
475721
476006
476296
476573
476857
477175
477466
477759
478051
478345
478628
478903
479213
479509
479804
480100
480392
480674
480953
481255
481555
481858
482142
482436
482725
483006
483292
483595
483902
484204
484495
484784
485065
485342
485644
485940
486245
486542
486829
487112
487388
487688
487988
488280
488570
488893
489164
489441
489736
490032
490329
490631
490902
491209
491487
491767
492069
492361
492659
492961
493261
493537
493796
494112
494403
494696
494993
495293
495580
495856
496153
496451
496723
497043
497333
497626
497907
498190
498482
498777
499080
499371
499678
499977
500240
500536
500826
501117
501422
501727
502012
502291
502596
502872
503160
503462
503768
504060
504337
504634
504934
505213
505510
505814
506110
506391
506675
506966
507256
507555
507856
508164
508447
508722
509018
509302
509598
509917
510205
510495
510772
511067
511354
511637
511935
512246
512542
512823
513112
513404
513688
513985
514288
514571
514875
515152
515439
515720
516020
516322
516631
516921
517195
517469
517774
518045
518344
518656
518955
519236
519529
519815
520090
520388
520719
521006
521291
521577
521867
522147
522444
522747
523059
523358
523631
523923
524204
524489
524789
525100
525394
525687
525977
526256
526533
526827
527137
527440
527732
528015
528317
528592
528877
529179
529489
529781
530067
530356
530649
530926
531225
531536
531826
532117
532407
532677
532967
533270
533575
533873
534160
534456
534739
535014
535287
535620
535910
536200
536498
536787
537065
537348
537644
537926
538236
538525
538814
539092
539375
539669
539979
540275
540552
540849
541149
541416
541699
542005
542313
542603
542909
543193
543455
543759
544051
544356
544652
544954
545243
545519
545806
546094
546415
546699
546995
547292
547569
547852
548142
548459
548761
549043
549347
549631
549903
550186
550487
550805
551084
551393
551688
551959
552242
552535
552842
553148
553438
553734
554012
554297
554583
554885
555181
555497
555786
556065
556344
556629
556930
557228
557511
557840
558120
558394
558671
558968
559274
559567
559875
560151
560447
560727
561007
561302
561597
561903
562204
562485
562768
563027
563340
563630
563927
564237
564527
564804
565085
565380
565675
565949
566285
566570
566848
567126
567417
567711
568004
568315
568618
568905
569179
569464
569753
570046
570351
570655
570944
571223
571517
571803
572097
572392
572708
573001
573280
573561
573853
574163
574442
574755
575055
575333
575615
575899
576190
576494
576793
577096
577384
577669
577951
578241
578518
578825
579145
579437
579726
580010
580300
580586
580875
581179
581487
581789
582054
582347
582629
582919
583238
583541
583827
584085
584378
584670
584951
585253
585561
585856
586146
586430
586720
586983
587284
587619
587899
588186
588471
588767
589052
589333
589648
589934
590216
590532
590805
591085
591367
591681
591983
592274
592564
592846
593149
593416
593712
594021
594319
594619
594903
595193
595473
595775
596070
596368
596664
596951
597243
597522
597798
598120
598412
598702
598995
599290
599571
599850
600156
600459
600761
601046
601337
601625
601901
602195
602501
602794
603093
603407
603684
603957
604242
604546
604840
605142
605436
605712
606006
606282
606584
606884
607181
607476
607774
608059
608337
608628
608935
609247
609527
609819
610109
610390
610674
610976
611275
611579
611865
612167
612451
612726
613024
613316
613618
613919
614217
614497
614764
615070
615374
615665
615961
616265
616550
616827
617124
617416
617713
618022
618309
618603
618883
619167
619462
619756
620055
620346
620668
620934
621213
621504
621790
622097
622400
622698
622976
623268
623558
623846
624139
624440
624750
625038
625302
625598
625914
626186
626482
626790
627085
627362
627654
627946
628223
628531
628847
629133
629411
629697
629987
630269
630573
630875
631171
631456
631755
632036
632319
632609
632910
633223
633517
633795
634092
634363
634647
634970
635262
635564
635848
636140
636423
636704
637001
637300
637609
637908
638187
638475
638755
639051
639355
639664
639957
640242
640544
640815
641095
641396
641707
642007
642289
642584
642864
643147
643440
643748
644051
644337
644632
644917
645194
645493
645787
646093
646387
646679
646967
647245
647536
647834
648162
648442
648727
649022
649298
649576
649873
