193
455
703
960
1218
1474
1736
2011
2283
2545
2798
3049
3299
3558
3830
4098
4365
4630
4896
5149
5404
5551
5920
6189
6464
6732
6991
7243
7501
7763
7916
8287
8557
8823
9088
9346
9593
9838
10100
10375
10638
10902
11163
11419
11671
11926
12181
12443
12619
12983
13247
13501
13749
13999
14246
14512
14780
15046
15305
15570
15829
16078
16330
16585
16848
17123
17392
17654
17910
18163
18420
18677
18941
19207
19478
19741
20003
20257
20509
20758
21026
21194
21571
21832
22096
22342
22598
22851
23108
23369
23636
23912
24177
24426
24674
24831
25188
25458
25727
25993
26247
26512
26768
27014
27268
27523
27790
28062
28328
28587
28831
29085
29344
29600
29865
30133
30396
30658
30922
31146
31410
31664
31929
32202
32470
32729
32980
33229
33484
33742
34004
34269
34536
34812
35072
35317
35565
35825
36086
36360
36628
36787
37148
37406
37661
37909
38160
38424
38687
38953
39219
39471
39712
39970
40226
40483
40740
41003
41267
41522
41776
42022
42267
42517
42786
43052
43317
43568
43813
44054
44307
44563
44811
45069
45334
45605
45753
46099
46341
46589
46839
47101
47367
47630
47884
48135
48389
48638
48885
49141
49405
49674
49938
50194
50444
50687
50943
51203
51467
51730
51997
52253
52508
52765
53015
53267
53532
53809
54072
54328
54584
54832
55086
55343
55603
55869
56133
56408
56663
56913
57162
57304
57659
57935
58204
58466
58725
58979
59233
59487
59736
59996
60264
60537
60802
61056
61305
61553
61813
62075
62343
62603
62869
63126
63376
63623
63879
64132
64395
64669
64931
65181
65431
65680
65929
66177
66442
66700
66860
67222
67475
67732
67974
68219
68471
68735
69004
69263
69517
69766
70021
70267
70519
70776
71042
71305
71573
71828
72074
72322
72476
72841
73111
73373
73637
73897
74157
74289
74654
74912
75179
75453
75721
75978
76228
76479
76731
76990
77253
77523
77785
78051
78307
78555
78803
79058
79310
79577
79850
80114
80363
80619
80877
81125
81374
81636
81901
82164
82431
82684
82928
83176
83440
83697
83965
84226
84486
84741
84998
85251
85499
85754
86025
86299
86564
86816
87066
87313
87567
87825
88086
88360
88624
88897
89017
89151
89404
89661
89907
90166
90436
90712
90978
91227
91480
91736
91989
92263
92508
92772
93052
93204
93331
93577
93823
94089
94350
94613
94886
95174
95332
95674
95932
96185
96441
96714
96979
97254
97521
97772
98026
98276
98538
98805
99072
99337
99611
99875
100129
100379
100630
100887
101159
101435
101696
101954
102105
102465
102717
102950
103225
103497
103762
104018
104270
104521
104768
105016
105286
105556
105803
106072
106339
106582
106837
107084
107340
107598
107872
108020
108391
108641
108891
109136
109392
109656
109922
110183
110447
110711
110958
111202
111455
111706
111971
112229
112503
112758
113010
113265
113514
113770
114028
114299
114563
114828
115083
115333
115579
115832
116100
116371
116633
116896
117154
117408
117664
117911
118169
118335
118710
118978
119232
119482
119732
119976
120238
120502
120773
121031
121297
121553
121809
122051
122306
122564
122833
123108
123379
123620
123872
124138
124387
124639
124906
125179
125444
125711
125966
126103
126464
126730
126995
127266
127533
127794
128047
128305
128560
128816
129076
129345
129622
129888
130138
130388
130641
130897
131157
131420
131687
131947
132213
132466
132714
132961
133219
133478
133753
134021
134286
134533
134785
135041
135300
135555
135823
136090
136361
136623
136874
137122
137375
137647
137912
138181
138442
138709
138958
139216
139470
139726
139990
140267
140538
140804
141056
141303
141556
141820
142087
142355
142620
142889
143150
143404
143652
143907
144171
144443
144717
144982
145240
145492
145748
146004
146263
146525
146796
146940
147324
147580
147835
148077
148337
148607
148880
149138
149396
149649
149900
150155
150410
150652
150933
151208
151467
151720
151969
152220
152471
152730
152997
153265
153526
153791
154049
154302
154552
154812
155076
155349
155624
155882
156133
156385
156643
156797
157162
157425
157694
157961
158218
158467
158715
158964
159226
159490
159759
160025
160278
160524
160777
161031
161286
161539
161809
162084
162343
162589
162838
163090
163341
163604
163754
164138
164401
164663
164919
165169
165416
165677
165838
166211
166486
166747
166994
167250
167508
167762
168023
168291
168557
168821
169084
169332
169583
169836
170110
170378
170647
170910
171172
171423
171677
171925
172192
172455
172726
172994
173256
173502
173753
173890
174265
174535
174798
175066
175321
175584
175834
176082
176333
176597
176866
177133
177396
177655
177897
178154
178409
178665
178917
179189
179451
179710
179968
180214
180458
180718
180989
181256
181518
181780
182036
182287
182538
182797
183056
183320
183595
183863
184119
184368
184618
184868
185134
185404
185673
185939
186201
186462
186714
186961
187219
187485
187758
188028
188286
188537
188786
189042
189295
189555
189815
190085
190352
190609
190864
191111
191362
191622
191896
192166
192425
192688
192939
193193
193448
193707
193972
194238
194515
194780
195034
195283
195537
195794
196065
196334
196602
196866
197132
197388
197642
197898
198161
198319
198698
198970
199224
199474
199724
199977
200310
200492
200759
201025
201286
201540
201786
202033
202291
202556
202823
203092
203350
203604
203853
204106
204361
204625
204886
205153
205425
205685
205930
206177
206432
206692
206962
207231
207495
207761
208025
208276
208525
208783
209054
209322
209595
209863
210121
210374
210603
210886
211153
211418
211684
211945
212207
212468
212715
212965
213230
213507
213778
214042
214304
214560
214816
215077
215333
215599
215870
216148
216412
216667
216918
217174
217431
217698
217973
218243
218504
218761
219017
219272
219525
219780
220053
220329
220602
220861
221111
221365
221629
221892
222157
222425
222694
222958
223220
223471
223726
223985
224263
224531
224801
225063
225321
225571
225830
226090
226354
226623
226937
227287
227508
227660
227934
228122
228449
228723
228992
229253
229519
229776
230029
230282
230543
230813
231085
231255
231618
231872
232123
232385
232650
232915
233185
233456
233717
233979
234232
234485
234741
235019
235293
235563
235826
236087
236337
236592
236857
237127
237393
237672
237945
238080
238440
238691
238948
239210
239478
239753
240010
240271
240530
240782
241032
241285
241554
241823
241973
242346
242603
242850
243101
243360
243626
243887
244150
244411
244668
244921
245166
245417
245678
245952
246224
246479
246734
246988
247242
247493
247747
248009
248275
248549
248811
249062
249305
249557
249808
250077
250353
250618
250878
251134
251392
251643
251889
252152
252419
252691
252963
253219
253470
253725
253986
254250
254416
254788
255057
255321
255583
255833
256088
256348
256625
256900
257174
257439
257695
257949
258211
258477
258747
259016
259294
259568
259825
260079
260334
260593
260868
261149
261424
261691
261955
262219
262480
262734
263000
263275
263551
263827
264087
264339
264596
264864
265126
265395
265667
265937
266203
266467
266720
266974
267240
267521
267789
268061
268324
268579
268832
269099
269359
269515
269894
270170
270432
270694
270943
271192
271452
271723
271998
272260
272525
272785
273043
273301
273554
273817
274086
274365
274634
274889
275103
275391
275654
275915
276181
276447
276723
276974
277226
277481
277737
277990
278264
278538
278807
279066
279322
279570
279827
280093
280357
280619
280890
281161
281414
281657
281907
282160
282425
282697
282961
283225
283482
283741
283988
284238
284495
284760
285025
285292
285551
285800
286045
286300
286555
286821
287082
287345
287608
287863
288111
288352
288608
288842
289145
289408
289673
289921
290174
290422
290676
290938
291202
291465
291735
292004
292257
292499
292750
293005
293268
293541
293810
294064
294318
294578
294828
295075
295332
295598
295860
296127
296389
296540
296879
297136
297394
297656
297917
298180
298436
298693
298946
299192
299439
299699
299971
300235
300498
300751
301002
301251
301505
301760
302025
302290
302556
302816
303068
303309
303555
303806
304071
304338
304600
304856
305088
305353
305604
305853
306099
306363
306620
306883
307143
307385
307624
307869
308129
308384
308641
308900
309160
309410
309657
309902
310146
310394
310660
310924
311187
311444
311581
311924
312171
312424
312673
312930
313190
313453
313698
313945
314088
314495
314638
315166
315408
315659
315901
316147
316380
316615
316864
317115
317369
317628
317884
318128
318369
318608
318863
319114
319369
319624
319884
320136
320381
320626
320874
321118
321378
321645
321906
322156
322405
322652
322897
323148
323396
323663
323923
324188
324448
324752
324947
325168
325437
325700
325975
326234
326491
326745
327004
327251
327504
327760
328030
328296
328565
328823
329074
329325
329583
329846
330115
330381
330645
330905
331163
331415
331667
331923
332189
332464
332734
332992
333243
333495
333751
334007
334267
334536
334801
335073
335332
335582
335830
336086
336344
336614
336889
337156
337411
337669
337925
338179
338431
338696
338964
339233
339504
339757
340003
340259
340524
340786
341051
341324
341589
341849
342108
342357
342611
342873
343148
343414
343682
343941
344196
344448
344709
344974
345240
345510
345785
346053
346314
346562
346818
347080
347356
347632
347905
348174
348282
348429
348691
348949
349204
349470
349743
350012
350280
350537
350786
351043
351308
351575
351839
352114
352369
352643
352903
353158
353414
353681
353969
354230
354493
354755
355013
355272
355537
355806
356050
356345
356637
356902
357161
357421
357573
357670
357925
358223
358490
358759
359018
359267
359529
359789
360048
360319
360589
360860
361127
361382
361629
361874
362050
362152
362417
362683
362949
363227
363473
363730
363979
364232
364493
364771
365041
365327
365558
365807
366059
366309
366576
366830
367098
367371
367755
368168
368381
368583
368889
369151
369669
369919
370163
370414
370809
371092
371395
371668
372078
372196
372432
372685
372937
373190
373443
373701
373954
374206
374452
374693
374936
375187
375449
375713
375994
376217
376464
376704
376950
377199
377446
377704
377960
378222
378472
378713
378951
379191
379438
379694
379958
380215
380464
380710
380958
381197
381435
381684
381938
382157
382450
382705
382947
383180
383411
383701
383919
384177
384633
384934
385149
385389
385635
385873
386124
386389
386641
386887
387130
387373
387689
387853
388094
388350
388601
388858
389115
389359
389593
389833
390076
390325
390583
390840
391098
391345
391589
391837
392080
392319
392564
392825
393086
393344
393586
393834
394072
394319
394568
394826
395076
395332
395585
395835
396080
396320
396562
396811
397078
397336
397591
397843
398094
398326
398431
398624
398830
399080
399336
399598
399865
400113
400356
400602
400849
401081
401348
401628
401887
402139
402393
402643
402892
403137
403393
403657
403925
404194
404440
404687
404932
405190
405442
405849
406223
406490
406712
406973
407209
407431
407613
407704
407997
408253
408502
408758
408978
409244
409491
409734
409993
410236
410512
410773
410988
411274
411530
411748
412004
412265
412503
412783
412938
413094
413274
413518
413755
414009
414265
414525
414791
415053
415301
415541
415793
416051
416304
416562
416829
417089
417346
417598
417848
418091
418347
418611
418890
419141
419390
419636
419877
420127
420378
420627
420882
421145
421411
421663
421907
422149
422398
422648
422908
423170
423430
423682
423933
424184
424431
424668
424920
425177
425439
425697
425946
426190
426431
426672
426850
427068
427424
427682
427933
428175
428427
428663
428865
429135
429399
429652
429899
430146
430378
430869
431084
431385
431784
432092
432342
432567
432799
433068
433232
433465
433811
434002
434241
434386
434525
434857
435224
435718
435835
435974
436140
436389
436634
436860
437347
437508
437801
438054
438313
438537
438779
438989
439165
439713
439875
440165
440658
440891
441039
441362
441575
442006
442284
442449
442766
443018
443347
443653
443915
444209
444646
444900
445135
445508
445846
446087
446356
446544
446802
447022
447296
447504
447718
447914
448213
448329
448653
448816
448986
449164
449408
449644
449880
450192
450543
450795
451041
451284
451529
451762
451993
452220
452451
452683
452914
453159
453400
453663
453946
454113
454351
454582
454732
455049
455292
455538
455784
456020
456255
456493
456676
456951
457129
457423
457660
457904
458153
458387
458610
458835
459063
459302
459537
459773
460012
460247
460485
460714
460941
461160
461382
461620
461868
462107
462337
462571
462813
463022
463368
463632
463947
464191
464435
464668
464900
465122
465345
465567
465802
466042
466279
466521
466723
466989
467226
467450
467670
467899
468135
468372
468613
468863
469104
469320
469547
469930
470255
470489
470729
470941
471198
471445
471709
471886
472093
472335
472698
473000
473299
473540
473776
474002
474228
474466
474706
474952
475168
475431
475684
475892
476168
476327
476625
476904
477327
477484
477648
478014
478253
478471
478751
478927
479398
479907
480139
480372
480612
480844
481084
481328
481570
481812
482098
482294
482522
482755
482988
483236
483487
483730
483974
484215
484439
484667
484895
485169
485362
485617
485842
486104
486354
486583
486808
487042
487266
487518
487746
487993
488131
488463
488706
488933
489161
489383
489615
489852
490101
490243
490586
490822
491046
491278
491509
491738
491970
492215
492457
492693
492929
493162
493389
493610
493844
494089
494327
494569
494811
495047
495272
495505
495738
495968
496202
496444
496695
496937
497180
497405
497631
497857
498092
498333
498573
498816
499053
499295
499535
499765
499987
500215
500450
500691
500935
501181
501418
501647
501873
502106
502337
502571
502807
503049
503290
503528
503762
503996
504220
504446
504678
504924
505165
505405
505643
505880
506104
506328
506563
506791
507023
507266
507517
507754
507990
508215
508439
508665
508895
509133
509369
509611
509850
510089
510323
510548
510769
510996
511230
511467
511710
511953
512191
512415
512642
512875
513101
513332
513566
513804
514044
514287
514524
514753
514978
515145
515429
515673
515911
516145
516381
516617
516841
517070
517302
517530
517760
518001
518255
518498
518739
518966
519193
519421
519653
519891
520132
520373
520611
520854
521091
521318
521536
521766
522004
522239
522485
522735
522974
523205
523436
523673
523901
524136
524380
524624
524868
525116
525361
525592
525828
525957
526298
526545
526797
527043
527285
527524
527762
528002
528235
528475
528719
528975
529229
529479
529714
529954
530186
530427
530678
530922
531173
531422
531674
531920
532154
532387
532626
532868
533122
533378
533629
533876
534111
534352
534594
534832
535073
535323
535573
535828
536078
536311
536552
536784
537033
537281
537531
537782
538032
538275
538514
538756
538988
539225
539471
539731
539980
540228
540491
540702
540936
541175
541378
541654
541904
542153
542414
542650
542889
543121
543351
543589
543841
544097
544344
544592
544828
545068
545306
545544
545783
546028
546280
546535
546786
547023
547258
547490
547731
547974
548225
548471
548719
548963
549206
549444
549676
549913
550154
550409
550665
550917
551159
551397
551634
551872
552116
552362
552611
552860
553115
553365
553603
553834
554071
554311
554558
554817
555067
555316
555557
555801
556040
556277
556512
556756
557006
557261
557513
557752
557987
558218
558462
558706
558954
559200
559449
559695
559939
560177
560407
560644
560880
561132
561388
561640
561881
562117
562354
562600
562830
563075
563320
563564
563817
564067
564308
564534
564763
565004
565250
565502
565756
566012
566255
566503
566747
566985
567221
567466
567723
567981
568237
568487
568637
568959
569202
569455
569706
569962
570219
570470
570722
570968
571205
571441
571683
571941
572200
572449
572700
572941
573180
573421
573669
573914
574162
574421
574686
574933
575171
575415
575657
575899
576153
576414
576670
576921
577174
577425
577663
577895
578145
578399
578658
578918
579172
579420
579794
580145
580395
580649
580903
581160
581415
581661
581904
582144
582384
582636
582906
583321
583566
583887
584124
584384
584620
584855
585116
585382
585625
585868
586107
586349
586581
586835
587092
587319
587597
587844
588089
588334
588571
588808
589060
589309
589570
589834
590067
590318
590553
590799
591041
591297
591551
591810
592054
592306
592551
592767
593022
593269
593525
593770
594026
594248
594397
594528
594813
595026
595197
595470
595736
595990
596244
596491
596724
596962
597168
597619
597913
598203
598466
598821
599167
599400
599634
599872
600205
600381
600643
600895
601099
601381
601625
601863
602103
602313
602575
602861
603110
603340
603572
603810
603985
604273
604556
604809
605034
605303
605542
605773
606014
606257
606491
606769
607011
607275
607437
607731
607963
608228
608441
608656
608860
609175
609599
609962
610337
610850
611124
611244
611347
611599
611830
612061
612302
612536
612766
613012
613262
613508
613751
613989
614221
614451
614687
614935
615176
615423
615665
615912
616146
616377
616608
616838
617075
617299
617529
617732
617922
618109
618255
618514
618722
618973
619130
619456
619705
619951
620200
620445
620680
620910
621148
621390
621642
621904
622154
622400
622640
622885
623123
623364
623609
623863
624114
624374
624629
624866
625102
625342
625590
625839
626099
626351
626601
626849
627094
627337
627576
627820
628073
628339
628596
628849
629092
629339
629572
629819
630100
630314
630468
630561
630825
631091
631334
631560
631825
632063
632305
632572
632829
633102
633334
633584
633824
634068
634311
634566
634826
635086
635347
635592
635833
636075
636328
636580
636841
637100
637358
637606
637856
638104
638345
638589
638847
639113
639369
639621
639868
640113
640354
640601
640851
641108
641365
641630
641885
642132
642371
642614
642859
643116
643384
643640
643894
644146
644399
644644
644890
645139
645402
645664
645931
646188
646441
646683
646931
647188
647446
647700
647964
648221
648478
648730
648973
649217
649468
649734
