348
721
1083
1445
1826
2194
2568
2915
3230
3568
3927
4278
4609
4945
5251
5555
5860
6171
6469
6754
7042
7333
7613
7894
8180
8472
8755
9022
9268
9515
9766
10035
10312
10580
10881
11242
11586
11933
12285
12647
13000
13317
13615
13916
14225
14562
14901
15229
15560
15898
16243
16604
16996
17352
17699
18024
18331
18642
18963
19273
19577
19867
20135
20404
20688
20987
21297
21635
22006
22362
22687
23014
23362
23717
24046
24360
24682
25008
25336
25695
26066
26432
26784
27136
27468
27808
28158
28497
28798
29102
29405
29708
30022
30332
30628
30917
31187
31459
31722
32010
32332
32664
32869
33046
33473
33655
33821
34302
34662
34861
35277
35472
35638
36098
36294
36755
36955
37121
37580
37911
38097
38266
38753
38942
39121
39588
39900
40089
40254
40713
41031
41227
41397
41835
42006
42437
42629
42799
43273
43464
43904
44088
44505
44696
44865
45348
45543
45973
46160
46322
46776
46960
47411
47611
48224
48407
48567
49007
49196
49375
49834
50026
50423
50612
50773
51210
51405
51848
52042
52209
52660
52840
53274
53576
53872
54080
54255
54714
54891
55071
55558
55751
56226
56546
56840
57172
57493
57690
57876
58344
58539
58990
59174
59330
59769
59959
60431
60641
61081
61282
61728
62098
62487
62823
63128
63498
63696
63865
64040
64567
64769
65286
65703
66103
66484
66885
67300
67700
68093
68462
68868
69269
69634
69963
70279
70616
70996
71404
71812
72190
72556
72942
73333
73726
74083
74405
74739
75135
75511
75904
76284
76667
77021
77397
77768
78153
78497
78853
79257
79647
80030
80370
80683
81016
81387
81801
82210
82582
82941
83303
83660
84031
84432
84833
85209
85596
86007
86377
86752
87129
87504
87885
88295
88707
89093
89427
89739
90054
90395
90774
91130
91452
91750
92043
92342
92655
93011
93390
93709
94031
94372
94713
95038
95377
95713
95909
96333
96660
97006
97329
97618
97906
98214
98511
98817
99132
99468
99805
100116
100439
100786
101147
101516
101881
102227
102556
102907
103299
103665
104039
104407
104776
105121
105500
105895
106285
106629
106975
107364
107774
108151
108534
108918
109287
109666
110061
110430
110785
111133
111468
111831
112224
112613
112953
113302
113669
114056
114401
114735
115079
115425
115761
116119
116529
116906
117277
117650
117987
118361
118756
119138
119483
119848
120221
120600
121003
121399
121767
122117
122468
122808
123136
123482
123881
124245
124642
125029
125414
125786
126114
126450
126809
127165
127562
127952
128308
128675
129046
129445
129817
130182
130537
130869
131231
131629
132009
132380
132720
133076
133463
133832
134204
134566
134902
135249
135613
135975
136351
136721
137056
137403
137755
138098
138458
138816
139171
139528
139873
140235
140571
140918
141276
141638
141972
142334
142711
143068
143395
143706
144033
144354
144678
144987
145313
145684
146063
146451
146822
147190
147537
147871
148190
148518
148886
149299
149686
150030
150384
150778
151177
151571
151930
152286
152663
153051
153429
153784
154086
154378
154681
155002
155317
155631
155939
156224
156496
156770
157050
157337
157613
157893
158168
158431
158688
158935
159199
159481
159782
160119
160479
160657
161072
161414
161747
162073
162422
162776
162958
163366
163705
164065
164412
164733
165059
165399
165750
166097
166416
166722
167026
167359
167693
168037
168398
168767
169109
169435
169754
170088
170463
170822
171155
171481
171827
172198
172560
172906
173255
173596
173916
174231
174555
174885
175184
175487
175780
176068
176380
176697
177013
177327
177614
177884
178183
178492
178829
179175
179499
179807
180119
180438
180778
181138
181498
181829
182144
182462
182782
183103
183433
183776
184115
184429
184749
185089
185452
185805
186146
186493
186820
187146
187506
187850
188207
188548
188869
189196
189513
189833
190150
190480
190786
191103
191449
191813
192179
192548
192903
193230
193564
193910
194254
194605
194954
195279
195602
195961
196321
196684
197048
197398
197733
198067
198411
198761
199133
199482
199801
200136
200493
200854
201213
201545
201855
202164
202476
202775
203080
203385
203679
203968
204261
204574
204913
205291
205663
206007
206356
206700
207064
207457
207828
208179
208527
208886
209246
209611
209967
210302
210639
210985
211350
211711
212076
212418
212752
213111
213470
213825
214181
214522
214816
215128
215474
215839
216201
216531
216846
217156
217483
217809
218133
218460
218790
219119
219447
219786
220139
220514
220874
221222
221594
221987
222389
222770
223135
223494
223840
224200
224561
224896
225227
225547
225855
226174
226495
226819
227128
227418
227717
228013
228336
228676
229003
229330
229668
229986
230286
230593
230924
231264
231608
231943
232245
232564
232908
233257
233594
233920
234241
234568
234890
235226
235575
235932
236266
236592
236908
237235
237580
237932
238244
238564
238895
239254
239616
239958
240277
240572
240860
241168
241511
241863
242229
242594
242958
243302
243659
244018
244353
244695
245027
245364
245720
246070
246412
246745
247042
247337
247634
247948
248254
248561
248859
249159
249454
249740
250040
250349
250650
250955
251232
251516
251810
252115
252471
252826
253159
253469
253759
254061
254354
254667
254993
255304
255612
255916
256108
256505
256807
257110
257401
257586
257957
258142
258530
258719
259124
259415
259604
259988
260171
260593
260885
261176
261477
261671
262042
262311
262574
262753
262918
263352
263643
263828
264209
264389
264756
265038
265333
265527
265929
266209
266391
266557
266937
267111
267490
267759
267950
268136
268505
268670
269001
269181
269524
269710
270041
270215
270545
270711
271025
271196
271513
271692
272045
272226
272578
272753
273079
273244
273590
273773
274132
274316
274682
274851
275189
275362
275686
275867
276203
276382
276718
276899
277225
277391
277718
277883
278231
278416
278768
278942
279269
279430
279738
279901
280228
280403
280729
280904
281224
281389
281705
281869
282201
282363
282712
282889
283228
283402
283713
283872
284182
284355
284688
284863
285198
285367
285692
285847
286166
286331
286660
286830
287179
287355
287718
287883
288228
288388
288741
288916
289293
289477
289827
289995
290315
290485
290814
290993
291327
291509
291842
292014
292335
292502
292833
293001
293362
293541
293918
294102
294440
294614
294945
295136
295463
295667
296003
296184
296532
296701
297051
297224
297609
297790
298203
298385
298790
298961
299362
299539
299993
300180
300606
300786
301209
301386
301823
302010
302439
302631
303029
303210
303573
303753
304155
304344
304779
304966
305376
305550
305970
306163
306595
306792
307184
307377
307747
307930
308340
308531
308959
309158
309568
309742
310135
310317
310720
310924
311313
311499
311871
312053
312221
312637
312819
313215
313403
313591
313993
314156
314545
314726
315114
315307
315691
316220
316394
316749
316937
317314
317498
317872
318054
318435
318611
318996
319180
319582
319772
320163
320345
320687
320948
321145
321335
321756
321939
322329
322508
322883
323065
323471
323679
324064
324347
324613
324874
325065
325229
325619
325907
326188
326461
326649
327023
327202
327576
327792
328154
328435
328625
328794
329205
329393
329764
329974
330365
330647
330943
331238
331548
331731
332170
332511
332835
333160
333512
333833
334163
334512
334851
335174
335493
335793
336104
336419
336747
337067
337358
337651
337944
338232
338548
338871
339183
339503
339815
340119
340434
340777
341111
341453
341795
342107
342427
342770
343107
343446
343769
344085
344403
344703
345019
345354
345680
346008
346319
346612
346896
347167
347455
347751
347955
348122
348513
348698
349046
349248
349586
349778
350122
350314
350655
350902
351088
351246
351651
351843
352241
352513
352779
352961
353545
354156
354747
355012
355272
355536
355809
356112
356423
356616
357012
357299
357571
357874
358212
358415
358830
359135
359417
359608
360202
360816
361112
361385
361572
361723
362144
362776
363075
363363
363644
363921
364197
364481
364787
365083
365374
365674
365967
366246
366520
366815
367129
367441
367731
368014
368300
368592
368895
369201
369503
369793
370088
370397
370702
371017
371345
371662
371988
372302
372593
372920
373276
373625
373938
374243
374523
374813
375127
375470
375799
376158
376514
376839
377187
377547
377773
378243
378447
378853
379151
379451
379788
379991
380162
380623
380805
381242
381425
381594
382053
382255
382720
382898
383323
383505
383960
384152
384649
384832
385281
385465
385925
386108
386607
386796
387277
387456
387907
388103
388590
388792
389250
389595
389917
390113
390289
390778
390977
391454
391658
391821
392254
392452
392908
393116
393570
393899
394089
394522
394865
395081
395260
395713
395914
396341
396529
396975
397177
397647
397995
398184
398365
398814
399005
399492
399868
400210
400565
400765
401233
401621
401979
402356
402558
403003
403352
403569
404237
404873
405064
405506
405735
406195
406536
406738
406924
407348
407536
407993
408326
408529
408710
409137
409314
409758
409956
410409
410604
411047
411229
411645
411832
412273
412467
412934
413115
413543
413722
414178
414373
414851
415042
415488
415668
416122
416319
416780
416977
417430
417613
418052
418232
418697
418898
419365
419548
419993
420168
420619
420817
421288
421472
421923
422106
422537
422717
423194
423382
423842
424027
424470
424650
425132
425327
425797
425981
426412
426598
427037
427234
427679
428026
428373
428571
428993
429331
429687
430031
430237
430673
431020
431367
431726
432089
432447
432791
433154
433356
433824
434225
434599
434964
435331
435529
436005
436392
436601
437053
437424
437620
438090
438300
438754
439407
439600
439785
440248
440451
440928
441120
441567
441753
442204
442405
442881
443077
443534
443719
444162
444359
444822
445185
445391
445816
446004
446447
446654
447084
447290
447678
447870
448294
448625
448828
449288
449500
449960
450143
450570
450765
451233
451593
451795
452236
452585
452780
453263
453462
453953
454150
454604
454795
455269
455476
455957
456156
456606
456789
457255
457461
457938
458135
458599
458787
459215
459540
459892
460101
460580
460932
461267
461643
462051
462433
462823
463208
463591
463961
464355
464751
465133
465502
465876
466292
466698
467083
467449
467841
468244
468622
469008
469376
469755
470136
470520
470920
471276
471628
472014
472402
472774
473158
473525
473891
474236
474592
474984
475402
475809
476207
476606
477008
477414
477808
478183
478546
478943
479347
479739
480155
480523
480889
481276
481683
482098
482463
482854
483245
483655
484023
484385
484752
485112
485450
485811
486201
486574
486918
487279
487630
488034
488402
488775
489157
489513
489901
490295
490656
491005
491363
491723
492103
492496
492879
493240
493579
493927
494287
494662
495052
495409
495769
496148
496534
496926
497309
497668
498012
498351
498707
499060
499427
499790
500129
500495
500890
501266
501643
502004
502348
502718
503118
503520
503916
504290
504698
505106
505515
505912
506280
506655
507036
507435
507857
508239
508631
509014
509411
509825
510214
510600
510951
511346
511746
512122
512471
512785
513095
513399
513718
514034
514334
514633
514925
515227
515529
515840
516143
516451
516777
516971
517391
517705
517907
518361
518710
518904
519325
519518
519947
520156
520590
520788
520978
521409
521585
522036
522227
522690
522891
523338
523516
523931
524116
524592
524794
525252
525441
525884
526063
526516
526714
527179
527377
527797
527980
528381
528570
529018
529214
529670
529853
530283
530464
530921
531122
531589
531784
532221
532400
532809
533003
533446
533639
534069
534248
534632
534820
535256
535446
535901
536088
536516
536703
537157
537347
537821
538021
538455
538640
539063
539248
539700
540034
540233
540422
540867
541047
541487
541807
542010
542195
542658
542841
543271
543452
543903
544115
544568
544761
545193
545376
545786
545989
546165
546629
546817
547266
547444
547860
548048
548504
548697
549131
549313
549735
549916
550354
550552
550991
551181
551595
551774
552194
552385
552836
553034
553490
553681
554112
554299
554756
554954
555423
555613
556032
556219
556676
556871
557334
557527
557971
558174
558591
558780
559246
559455
559921
560109
560288
560727
560919
561379
561584
561761
562229
562410
562877
563068
563245
563756
564143
564494
564689
564851
565336
565753
565960
566137
566618
566802
566971
567455
567849
568196
568561
568762
569392
569786
570196
570593
570976
571390
571769
572126
572495
572898
573259
573648
574069
574478
574893
575309
575736
576184
576617
577057
577457
577857
578239
578655
579101
579527
579871
580224
580603
580950
581290
581508
581686
582131
582477
582832
583180
583393
583579
584062
584457
584862
585077
585266
585775
586181
586379
586551
587068
587507
587716
587898
588391
588828
589026
589216
589754
589951
590129
590615
591019
591218
591396
591923
592349
592543
592712
593210
593643
593853
594032
594546
594963
595158
595323
595843
596302
596503
596682
597171
597366
597537
598058
598520
598722
598901
599385
599568
599738
600274
600705
600909
601078
601569
601982
602189
602373
602900
603295
603491
603657
604144
604567
604776
604959
605450
605831
606027
606204
606697
607131
607334
607526
607992
608183
608357
608852
609047
609235
609707
609881
610317
610515
610689
611163
611360
611988
612156
612630
612826
613515
613710
614170
614510
614699
615159
615527
615736
616211
616563
616756
617447
617875
618079
618560
618762
619450
619876
620087
620290
620774
621145
621345
622061
622475
622844
623045
623723
624131
624344
624498
625017
625369
625563
626017
626234
626674
626981
627317
627627
627832
628010
628492
628693
629115
629404
629679
629970
630257
630568
630778
630950
631398
631583
631979
632301
632513
632696
633128
633318
633700
633887
634038
634468
634664
635074
635268
635653
635840
636226
636405
636838
637038
637471
637661
638077
638254
638659
638857
639298
639491
639896
640086
640264
640689
640878
641305
641614
641811
641987
642397
642572
642966
643161
643558
643765
644137
644410
644605
644766
645185
645388
645798
646000
646184
646613
646913
647220
647567
647782
648263
648619
648966
649165
649340
649790
