356
729
1091
1453
1834
2202
2574
2923
3238
3575
3938
4286
4616
4950
5256
5561
5864
6177
6476
6764
7046
7335
7618
7886
8202
8498
8756
9007
9285
9515
9762
10038
10314
10585
10886
11248
11591
11938
12289
12650
13005
13322
13618
13920
14229
14567
14906
15234
15563
15902
16247
16607
17001
17357
17536
17704
18030
18337
18646
18969
19278
19582
19871
20139
20408
20692
20993
21302
21639
22010
22367
22693
23020
23370
23722
24051
24363
24685
25012
25339
25699
26071
26436
26788
27141
27474
27815
28162
28502
28802
29105
29419
29703
30029
30341
30635
30925
31198
31466
31738
32018
32342
32676
32879
33046
33482
33666
33828
34310
34673
34870
35286
35483
35643
36106
36307
36763
36964
37131
37585
37918
38105
38275
38762
38955
39124
39592
39906
40096
40261
40718
41038
41237
41400
41842
42014
42444
42638
42802
43281
43471
43910
44096
44512
44702
44873
45356
45539
45980
46168
46327
46781
46965
47418
47622
47788
48230
48412
48572
49013
49206
49381
49840
50030
50430
50620
50776
51215
51413
51854
52053
52216
52665
52848
53277
53580
53877
54090
54247
54720
54890
55065
55563
55755
56229
56546
56843
57177
57499
57700
57873
58028
58348
58538
58995
59181
59337
59775
59961
60438
60638
61087
61278
61733
62105
62495
62831
63507
63703
63853
64048
64245
64403
64575
64778
65291
65448
65711
66110
66493
66889
67147
67309
67500
67710
68095
68472
68877
69147
69263
69632
69971
70288
70625
71004
71413
71821
72199
72564
72950
73342
73735
74093
74413
74747
75145
75520
75913
76292
76676
77030
77406
77777
78161
78506
78863
79266
79653
80036
80380
80690
81023
81395
81810
82219
82590
82948
83311
83670
84040
84440
84842
85217
85604
86017
86386
86760
87137
87513
87893
88304
88716
89102
89436
89746
90063
90403
90783
91138
91458
91756
92050
92350
92665
93020
93396
93718
94038
94379
94722
95046
95385
95721
95917
96342
96669
97012
97333
97624
97914
98224
98520
98829
99141
99477
99816
100125
100448
100794
101156
101527
101892
102237
102568
102918
103313
103675
104050
104417
104787
105131
105509
105904
106293
106638
106983
107371
107785
108161
108544
108929
109299
109676
110070
110439
110792
111143
111479
111841
112238
112624
112964
113314
113679
114064
114411
114746
115086
115435
115771
116127
116540
116917
117285
117660
117998
118371
118765
119148
119493
119856
120231
120610
121013
121411
121776
122125
122475
122817
123146
123490
123888
124254
124653
125039
125421
125794
126122
126457
126819
127175
127570
127962
128315
128684
129054
129455
129825
130189
130546
130877
131238
131637
132018
132387
132729
133083
133472
133841
134211
134575
134910
135256
135623
135983
136358
136730
137065
137413
137765
138468
138824
139180
139537
139881
140244
140582
140929
141285
141644
141979
142340
142720
143074
143402
143714
144038
144362
144691
145002
145326
145694
146073
146462
146832
147201
147546
147876
148199
148530
148897
149308
149696
150040
150396
150788
151186
151583
151940
152295
152672
153061
153437
153812
154094
154385
154685
155010
155324
155637
155948
156230
156508
156769
157058
157346
157621
157898
158175
158436
158694
158944
159208
159488
159790
160126
160487
160671
161078
161420
161754
162080
162428
162784
162967
163371
163708
164069
164418
164738
165064
165404
165755
166104
166423
166729
167032
167364
167700
168045
168405
168773
169115
169441
169761
170095
170470
170831
171162
171488
171834
172204
172568
172913
173261
173604
173923
174237
174562
174894
175191
175495
175785
176075
176386
176706
177020
177333
177626
177914
178193
178498
178836
179172
179507
179812
180122
180447
180785
181146
181505
181837
182150
182467
182786
183108
183439
183780
184121
184435
184754
185094
185457
185810
186151
186501
186829
187152
187518
187860
188214
188556
188874
189199
189516
189884
190149
190484
190791
191108
191455
191821
192190
192554
192911
193238
193570
193917
194266
194611
194960
195289
195609
195968
196333
196690
197054
197291
197740
198073
198422
198769
199139
199494
199693
200143
200505
200863
201222
201554
201864
202171
202485
202784
203089
203393
203686
203976
204269
204583
204921
205300
205672
206016
206365
206711
207074
207467
207837
208187
208535
208895
209255
209619
209975
210310
210646
210994
211359
211719
212085
212426
212760
213119
213480
213831
214189
214526
214813
214974
215140
215481
215842
216209
216537
216853
217159
217490
217821
218141
218461
218792
219124
219453
219792
220147
220521
220880
221228
221600
221993
222397
222775
223142
223501
223874
224210
224567
224903
225233
225553
225869
226199
226503
226774
227136
227425
227719
228018
228345
228684
229010
229335
229672
229989
230293
230599
230930
231269
231613
231950
232252
232571
232904
233266
233601
233925
234246
234574
234897
235233
235414
235589
235715
235943
236183
236356
236581
236908
237216
237466
237643
237934
238127
238330
238553
238902
239265
239452
239693
239965
240277
240586
240866
241171
241518
241867
242234
242600
242963
243309
243665
244025
244348
244700
245033
245369
245725
246071
246418
246751
247049
247466
247639
247947
248260
248569
248865
249163
249461
249745
250048
250358
250657
250962
251241
251518
251815
252120
252477
252835
253166
253464
253781
253903
254080
254336
254672
254997
255305
255617
255923
256120
256488
257088
257180
257598
257957
258157
258734
259133
259419
259613
259986
260186
260601
260894
261184
261485
261682
262052
262317
262762
262918
263225
263357
263836
264220
264401
264762
265040
265331
265543
265707
265934
266184
266419
266552
266945
267128
267499
267810
267953
268128
268514
268675
269006
269194
269532
269723
270048
270222
270552
270715
271010
271204
271523
271702
272052
272233
272590
272759
273071
273255
273600
273778
274140
274324
274691
274861
275202
275371
275696
275879
276209
276389
276681
276899
277230
277395
277725
277892
278234
278421
278773
278951
279274
279437
279739
279922
280099
280413
280748
280898
281220
281397
281647
281876
282370
282668
282877
283239
283402
283726
283880
284180
284366
284710
284867
285093
285190
285382
285659
285873
286332
286470
286842
287183
287361
287713
287891
288234
288398
288738
288925
289305
289495
289867
289999
290323
290495
290821
291001
291302
291527
291851
292012
292506
292845
293005
293214
293369
293541
294093
294448
294629
294952
295131
295469
295665
296013
296189
296540
296706
297060
297243
297346
297617
297790
298209
298392
298795
298962
299369
299543
299999
300184
300612
300793
301215
301388
301726
301821
302016
302446
302630
303059
303214
303578
303758
304164
304359
304772
304983
305346
305556
305970
306163
306596
306792
307190
307372
307754
307929
308349
308535
308966
309165
309575
309742
310143
310319
310736
310957
311448
311549
311794
312071
312203
312795
313212
313399
313581
313997
314163
314298
314549
314721
315098
315319
315588
315689
315887
316013
316223
316396
316749
316943
317321
317498
317878
318062
318441
318611
319000
319185
319589
319790
320171
320346
320693
320953
321160
321331
321760
321945
322338
322515
322894
323072
323470
323671
324084
324337
324616
324959
325158
325338
325604
325882
326164
326459
326657
327028
327210
327483
327788
327921
328159
328444
328636
328796
329211
329387
329768
329963
330373
330644
330949
331244
331554
331744
332178
332518
332841
333164
333518
333840
334170
334520
334856
335180
335500
335801
336111
336429
336751
337078
337363
337656
337952
338238
338555
338879
339187
339509
339823
340123
340441
340786
341119
341462
341804
342114
342435
342778
343115
343455
343782
344059
344410
344710
345025
345364
345688
346017
346320
346620
346917
347078
347501
347755
347964
348123
348316
348519
348708
349049
349247
349594
349796
350128
350322
350662
350908
351097
351246
351657
351848
352248
352516
352786
352971
353114
353552
353739
354145
354344
354566
354749
355017
355284
355538
355814
356120
356430
356626
357015
357302
357575
357879
358217
358424
358665
358834
359140
359422
359616
359778
360206
360382
360810
361122
361392
361583
361713
362151
362330
362781
363081
363363
363650
363930
364196
364546
364762
365089
365378
365681
365965
366187
366523
366821
367136
367448
367737
368020
368303
368599
368902
369188
369492
369799
370093
370404
370688
371016
371356
371890
372311
372599
372926
373284
373632
373945
374252
374533
374822
375136
375479
375808
376166
376522
376846
377195
377555
377765
378092
378250
378446
378857
379165
379456
379796
380000
380162
380629
380809
381247
381436
381592
382058
382254
382726
382900
383330
383515
383966
384160
384655
384842
385286
385474
385930
386110
386613
386805
387039
387281
387465
387912
388103
388595
388797
389255
389600
389924
390124
390285
390784
390974
391460
391668
391816
392259
392446
392915
393127
393575
393883
394097
394530
394861
395091
395255
395719
395911
396347
396536
396981
397189
397652
398001
398197
398353
398816
399018
399498
399877
400054
400214
400569
400775
401237
401626
401985
402361
402568
403006
403360
403580
403765
403957
404240
404439
404879
405075
405513
405745
406200
406543
406750
406912
407353
407545
407999
408331
408539
408706
409142
409316
409764
409967
410414
410610
411051
411234
411617
411842
412279
412472
412940
413125
413548
413731
414184
414382
414857
415051
415493
415675
416128
416328
416784
416984
417436
417623
418058
418241
418703
418907
419371
419558
419998
420178
420624
420827
421293
421481
421929
422115
422541
422726
423199
423391
423848
424038
424475
424659
425138
425338
425803
425992
426417
426609
427043
427236
427684
428033
428380
428580
428999
429337
429694
430038
430248
430680
431027
431374
431734
432098
432453
432798
433161
433368
433831
434233
434606
434971
435337
435539
436012
436398
436612
437058
437429
437632
438095
438311
438756
438977
439411
439609
439775
440252
440459
440932
441128
441571
441754
442208
442413
442885
443078
443538
443724
444168
444356
444828
445191
445401
445822
446002
446453
446658
447089
447298
447684
447878
448299
448630
448836
449293
449509
449965
450142
450575
450774
451238
451599
451803
452240
452591
452789
453267
453470
453958
454159
454609
454805
455274
455476
455962
456166
456611
456793
457261
457467
457944
458146
458604
458797
459219
459363
459547
459905
460113
460588
460940
461277
461653
462062
462443
462830
463215
463598
463970
464362
464758
465139
465508
465883
466300
466705
467090
467455
467847
468251
468630
469014
469383
469762
470142
470527
470926
471282
471633
472021
472406
472782
473163
473530
473896
474242
474598
474991
475408
475815
476213
476611
477014
477419
477812
478189
478552
478949
479355
479745
480160
480530
480895
481282
481688
482105
482469
482859
483250
483662
483971
484392
484757
485119
485458
485820
486207
486580
486925
487287
487638
488042
488411
488782
489164
489520
489909
490303
490663
491012
491370
491730
492109
492503
492886
493246
493584
493933
494293
494667
495058
495415
495775
496155
496540
496932
497316
497673
498018
498356
498713
499066
499431
499795
500134
500499
500895
501271
501648
502009
502353
502723
503124
503525
503921
504295
504703
505111
505519
505918
506285
506659
507042
507441
507862
508244
508634
509019
509416
509830
510219
510607
510956
511350
511754
512124
512481
512790
513099
513401
513726
514047
514340
514641
514928
515230
515537
515846
516151
516459
516786
516985
517397
517713
517916
518368
518717
518916
519144
519333
519529
519954
520157
520596
520795
520970
521414
521591
522041
522236
522697
522904
523342
523523
523935
524121
524598
524801
524975
525248
525446
525889
526069
526325
526521
526718
527183
527378
527803
527983
528385
528570
529023
529221
529676
529855
530289
530468
530926
531125
531592
531788
532227
532404
532811
533006
533452
533646
533873
534073
534254
534636
534824
535260
535455
535906
536094
536522
536708
537162
537358
537824
538026
538461
538649
539068
539259
539483
539707
540038
540251
540420
540872
541061
541490
541815
542026
542196
542664
542851
543276
543468
543910
544129
544575
544774
545197
545388
545794
546001
546173
546634
546828
547272
547451
547866
548052
548511
548704
549135
549322
549741
549926
550360
550560
550996
551188
551601
551782
552199
552395
552843
553041
553496
553689
554116
554306
554761
554962
555428
555619
556038
556225
556676
556876
557340
557536
557977
558171
558596
558781
559252
559466
559928
560119
560283
560490
560732
560929
561385
561594
561768
562234
562417
562883
563079
563250
563763
564151
564502
564701
564857
565343
565762
565971
566136
566364
566624
566811
566974
567461
567855
568204
568567
568772
568935
569398
569793
570203
570601
570983
571396
571777
572133
572502
572905
573264
573655
574077
574486
574901
575137
575316
575742
576191
576624
577064
577463
577863
578247
578662
579107
579533
579914
580227
580423
580619
580958
581298
581518
581686
582140
582485
582845
583183
583405
583576
584068
584466
584869
585089
585265
585782
586189
586390
586552
586806
587075
587516
587728
587897
588397
588832
589037
589211
589758
589964
590127
590620
591026
591231
591397
591930
592357
592557
592714
593218
593652
593865
594034
594554
594972
595170
595324
595849
596311
596517
596683
597178
597380
597539
598069
598529
598735
598902
599161
599394
599579
599740
600283
600714
600922
601080
601577
601991
602202
602376
602907
603303
603502
603660
604152
604577
604788
604963
605458
605839
606038
606205
606702
607138
607345
607517
607999
608194
608359
608858
609057
609231
609518
609706
609889
610324
610526
610685
610851
611168
611367
611534
611993
612170
612635
612831
613026
613521
613720
614174
614516
614711
615164
615533
615748
616216
616569
616767
616936
617452
617882
618091
618564
618774
618946
619455
619882
620101
620282
620779
621151
621358
621529
622066
622482
622851
623058
623231
623729
624138
624358
624528
625022
625378
625581
626017
626233
626679
626989
627327
627635
627842
628018
628500
628694
629122
629408
629685
629977
630264
630553
630791
630955
631393
631582
631984
632307
632531
632707
632904
633128
633325
633707
633908
634057
634277
634483
634670
635118
635243
635669
635842
636151
636412
636843
637043
637462
637679
638105
638254
638663
638870
639091
639299
639497
639902
640099
640258
640877
641174
641310
641661
641816
642067
642407
642549
642972
643172
643563
643776
644142
644418
644616
644758
645193
645392
645805
646012
646181
646619
646920
647229
647575
647794
648268
648624
648972
649174
649339
649794
