296
591
912
1230
1538
1841
2140
2437
2749
3061
3373
3690
3996
4289
4586
4884
5202
5524
5836
6138
6438
6740
7040
7349
7664
7976
8281
8574
8872
9173
9494
9812
10121
10426
10721
11023
11323
11631
11950
12271
12577
12866
13164
13460
13779
14098
14408
14718
15020
15316
15609
15918
16233
16551
16857
17153
17448
17757
18071
18384
18697
19003
19303
19602
19900
20203
20526
20842
21145
21443
21739
22044
22359
22670
22984
23294
23594
23888
24184
24493
24805
25129
25436
25733
26032
26337
26648
26959
27269
27579
27879
28176
28476
28776
29101
29419
29723
30021
30317
30622
30931
31246
31559
31875
32089
32422
32716
33022
33341
33660
33976
34272
34569
34873
35177
35480
35801
36114
36421
36716
37009
37315
37640
37956
38265
38568
38858
39163
39463
39774
40092
40411
40712
41007
41303
41606
41925
42244
42553
42856
43158
43456
43752
44062
44379
44698
45002
45298
45595
45905
46217
46529
46843
47143
47439
47737
48042
48349
48679
48992
49291
49588
49883
50184
50505
50816
51128
51444
51739
52029
52329
52638
52960
53277
53583
53878
54182
54484
54792
55104
55419
55727
56028
56321
56617
56931
57251
57566
57870
58171
58468
58770
59078
59389
59705
60019
60314
60606
60906
61213
61536
61853
62159
62458
62761
63056
63364
63677
63992
64306
64602
64897
65192
65505
65824
66137
66440
66739
67038
67338
67641
67953
68278
68584
68883
69177
69478
69789
70109
70422
70729
71031
71337
71635
71938
72251
72571
72885
73185
73476
73780
74092
74408
74719
75033
75329
75629
75923
76223
76543
76868
77176
77476
77773
78068
78377
78691
79000
79315
79623
79918
80210
80512
80828
81149
81461
81763
82060
82362
82667
82976
83290
83600
83908
84207
84498
84799
85116
85434
85742
86051
86337
86639
86947
87261
87570
87895
88194
88486
88783
89085
89402
89720
90036
90337
90638
90933
91231
91542
91856
92173
92485
92779
93071
93380
93589
93960
94269
94576
94873
95175
95466
95768
96090
96414
96721
97019
97310
97617
97926
98242
98555
98861
99165
99460
99754
100062
100380
100694
101006
101307
101601
101910
102217
102528
102842
103149
103449
103745
104044
104350
104675
104993
105301
105596
105891
106194
106502
106822
107128
107446
107744
108040
108333
108642
108966
109283
109594
109886
110185
110491
110800
111101
111420
111726
112035
112331
112623
112933
113254
113574
113881
114184
114479
114776
115082
115392
115709
116032
116330
116623
116918
117223
117543
117856
118171
118470
118773
119071
119369
119677
119996
120311
120617
120912
121208
121520
121833
122142
122453
122759
123055
123356
123655
123962
124290
124602
124904
125199
125496
125797
126117
126429
126739
127053
127346
127640
127937
128248
128569
128889
129195
129487
129787
130090
130399
130714
131027
131335
131639
131932
132225
132540
132864
133173
133478
133777
134073
134384
134694
135003
135320
135634
135932
136223
136519
136833
137156
137468
137771
138066
138366
138667
138975
139291
139600
139908
140205
140505
140807
141122
141442
141749
142057
142354
142657
142955
143262
143576
143902
144211
144503
144800
145098
145411
145728
146044
146347
146651
146944
147245
147547
147863
148183
148499
148794
149087
149389
149698
150014
150327
150641
150940
151237
151534
151835
152150
152475
152790
153085
153382
153683
153988
154304
154616
154931
155235
155533
155824
156128
156444
156764
157075
157373
157676
157979
158282
158589
158907
159217
159521
159814
160115
160419
160743
161060
161373
161671
161962
162260
162568
162879
163192
163513
163815
164105
164399
164704
165019
165338
165650
165952
166252
166551
166849
167163
167476
167793
168101
168391
168690
169000
169313
169625
169936
170238
170541
170843
171139
171446
171768
172085
172386
172680
172977
173277
173596
173914
174218
174533
174829
175126
175419
175730
176053
176371
176677
176971
177271
177576
177880
178194
178512
178814
179119
179412
179710
180020
180345
180661
180966
181263
181556
181861
182102
182457
182772
183087
183385
183673
183972
184278
184603
184920
185227
185524
185825
186122
186425
186740
187054
187368
187671
187965
188260
188574
188895
189209
189514
189820
190119
190415
190721
191026
191347
191662
191962
192256
192557
192864
193185
193496
193800
194109
194409
194704
195008
195319
195635
195951
196256
196545
196849
197161
197475
197782
198097
198400
198695
198990
199292
199610
199931
200243
200541
200835
201130
201444
201758
202068
202386
202693
202987
203280
203579
203894
204216
204530
204827
205127
205426
205730
206039
206353
206668
206974
207269
207565
207868
208188
208509
208812
209121
209415
209715
210013
210322
210638
210965
211270
211560
211858
212159
212476
212796
213107
213301
213660
213958
214251
214555
214873
215193
215501
215798
216090
216399
216708
217020
217333
217642
217941
218241
218539
218841
219161
219482
219790
220088
220385
220682
220996
221312
221516
221875
222181
222476
222767
223067
223383
223701
224013
224319
224614
224917
225216
225528
225845
226153
226458
226759
227056
227348
227671
227997
228311
228611
228907
229206
229517
229827
230136
230455
230761
231058
231349
231652
231970
232293
232603
232902
233202
233504
233805
234113
234430
234746
235052
235344
235638
235945
236261
236580
236886
237196
237488
237786
238086
238391
238713
239032
239340
239636
239933
240233
240550
240868
241174
241483
241786
242083
242379
242685
243000
243319
243625
243923
244214
244521
244833
245147
245463
245770
246065
246359
246653
246967
247295
247608
247912
248217
248508
248814
249125
249437
249749
250065
250362
250649
250952
251254
251582
251901
252203
252501
252805
253103
253407
253723
254036
254350
254652
254941
255238
255553
255871
256189
256491
256786
257084
257395
257690
258002
258319
258641
258939
259228
259529
259832
260154
260470
260776
261081
261379
261681
261980
262294
262611
262922
263224
263520
263818
264128
264444
264757
265070
265367
265667
265967
266273
266584
266910
267222
267521
267817
268113
268423
268741
269056
269364
269672
269969
270264
270563
270876
271197
271512
271814
271998
272317
272622
272932
273247
273561
273866
274168
274461
274757
275070
275393
275709
276013
276312
276607
276909
277217
277528
277846
278158
278456
278749
279049
279354
279679
279993
280300
280597
280900
281200
281504
281818
282133
282442
282660
282972
283268
283583
283898
284209
284521
284821
285118
285418
285722
286027
286354
286664
286962
287258
287554
287864
288127
288457
288763
289071
289370
289668
289963
290277
290597
290916
291215
291507
291809
292115
292428
292744
293057
293360
293660
293953
294252
294567
294890
295205
295505
295804
296100
296301
296624
296942
297253
297566
297865
298158
298451
298758
299081
299403
299712
300009
300306
300610
300914
301226
301543
301852
302155
302449
302744
303054
303376
303694
303998
304302
304492
304810
305118
305426
305742
306064
306367
306659
306953
307257
307577
307897
308211
308507
308811
309106
309406
309719
310032
310351
310658
310954
311248
311560
311873
312185
312497
312801
313098
313399
313698
314005
314327
314643
314948
315243
315539
315841
316159
316476
316784
317096
317285
317600
317893
318200
318517
318836
319147
319444
319740
320047
320354
320664
320980
321290
321590
321885
322178
322485
322811
323126
323433
323736
324030
324331
324636
324949
325266
325581
325881
326177
326372
326690
327005
327329
327640
327941
328243
328538
328839
329148
329463
329782
330092
330383
330676
330985
331301
331547
331869
332179
332475
332773
333070
333373
333691
334012
334320
334615
334914
335106
335432
335750
336066
336378
336682
336977
337273
337575
337888
338208
338525
338828
339116
339422
339730
340043
340355
340668
340969
341267
341564
341862
342180
342501
342812
343113
343411
343708
344019
344329
344641
344957
345262
345556
345849
346152
346463
346786
347099
347401
347699
348001
348307
348614
348933
349240
349547
349845
350062
350373
350696
351014
351324
351628
351925
352221
352526
352834
353148
353471
353778
354068
354367
354666
354977
355304
355618
355916
356223
356430
356741
357044
357359
357677
357991
358291
358582
358886
359193
359514
359827
360132
360438
360739
361036
361332
361654
361968
362278
362469
362779
363077
363285
363638
363951
364266
364581
364877
365165
365467
365772
366098
366415
366715
367013
367319
367619
367820
368151
368466
368780
369082
369379
369672
369980
370308
370612
370925
371228
371526
371829
372124
372434
372754
373071
373374
373664
373961
374262
374581
374899
375211
375516
375817
376113
376410
376726
377038
377361
377667
377864
378170
378481
378795
379110
379417
379722
380024
380322
380623
380924
381251
381565
381873
382166
382467
382769
383083
383399
383610
383934
384242
384538
384828
385135
385452
385770
386084
386379
386676
386986
387293
387600
387919
388223
388528
388826
389120
389428
389750
389972
390297
390594
390892
391193
391498
391809
392120
392437
392746
393037
393331
393633
393949
394271
394584
394882
395188
395484
395790
396097
396414
396725
397031
397327
397621
397924
398240
398558
398769
399096
399397
399699
399995
400298
400617
400940
401245
401539
401832
402133
402447
402766
403075
403389
403691
403988
404280
404591
404904
405132
405458
405760
406050
406358
406665
406977
407291
407597
407904
408204
408495
408793
408987
409319
409641
409939
410240
410538
410836
411151
411462
411778
411991
412304
412590
412889
413194
413514
413832
414146
414441
414746
415047
415348
415661
415974
416177
416505
416792
417088
417395
417718
418029
418341
418648
418945
419140
419460
419766
420083
420403
420708
421002
421299
421598
421908
422129
422470
422772
423079
423377
423674
423981
424296
424607
424927
425221
425511
425708
426034
426354
426665
426983
427280
427582
427878
428172
428484
428811
429127
429427
429721
430018
430324
430634
430954
431265
431470
431810
432104
432406
432711
433028
433348
433654
433952
434253
434452
434808
435119
435439
435745
436053
436347
436635
436949
437269
437589
437894
438194
438493
438796
439098
439406
439728
440039
440338
440634
440930
441240
441558
441872
442181
442487
442788
443082
443383
443700
444016
444336
444633
444925
445226
445534
445851
446162
446477
446777
447085
447379
447675
447983
448303
448615
448918
449213
449515
449823
450129
450447
450762
451075
451369
451661
451963
452275
452595
452909
453213
453505
453813
454115
454426
454740
454967
455312
455614
455904
456201
456519
456839
457151
457453
457750
458049
458354
458665
458978
459298
459604
459900
460191
460492
460804
461124
461440
461737
462043
462345
462646
462948
463269
463583
463896
464188
464481
464784
465099
465415
465729
466038
466337
466643
466932
467239
467558
467878
468191
468480
468781
469080
469385
469702
470018
470331
470638
470926
471218
471527
471840
472169
472473
472772
473070
473375
473681
473997
474313
474620
474927
475223
475520
475823
476144
476457
476764
477066
477358
477661
477970
478282
478599
478920
479219
479508
479807
480106
480426
480746
481055
481356
481655
481957
482258
482573
482889
483201
483500
483796
484085
484405
484719
485032
485347
485645
485948
486245
486548
486855
487184
487496
487794
488085
488382
488687
489005
489316
489632
489942
490237
490527
490831
491145
491464
491779
492084
492375
492682
492981
493292
493610
493922
494229
494532
494827
495125
495438
495759
496070
496372
496664
496965
497273
497584
497777
498109
498427
498724
499013
499317
499618
499939
500256
500563
500858
501166
501466
501769
502089
502402
502715
503015
503221
503534
503840
504157
504470
504782
505086
505381
505684
505988
506242
506584
506896
507199
507491
507795
508083
508407
508718
509027
509220
509549
509847
510137
510451
510765
510993
511330
511631
511834
512148
512453
512765
512962
513294
513605
513904
514090
514399
514617
514959
515278
515588
515887
516181
516479
516775
517099
517415
517728
518033
518326
518621
518920
519242
519555
519870
520171
520474
520770
521071
521385
521703
522016
522326
522623
522914
523222
523533
523843
524151
524456
524758
525061
525361
525669
525995
526309
526611
526904
527196
527502
527821
528134
528445
528759
529056
529346
529646
529959
530276
530595
530900
531191
531489
531795
532105
532417
532735
533042
533346
533645
533938
534251
534574
534887
535189
535487
535779
536081
536392
536706
537019
537336
537639
537927
538227
538534
538856
539175
539479
539773
540080
540386
540685
540864
541207
541522
541833
542125
542413
542723
542962
543312
543624
543927
544224
544526
544823
545135
545461
545780
546085
546373
546672
546974
547294
547609
547916
548224
548523
548821
549116
549433
549750
550067
550375
550661
550959
551266
551580
551888
552209
552514
552818
553109
553409
553724
554045
554233
554550
554848
555139
555440
555749
556062
556378
556694
556997
557288
557586
557891
558213
558458
558777
559074
559375
559672
559971
560286
560505
560864
561176
561472
561762
562068
562380
562698
563001
563312
563609
563911
564208
564515
564842
565158
565462
565756
566054
566354
566671
566982
567179
567502
567811
568103
568399
568707
568905
569244
569566
569865
570156
570458
570645
570966
571280
571595
571900
572204
572397
572712
573019
573345
573661
573965
574263
574557
574859
575166
575482
575794
576110
576411
576706
577002
577305
577627
577951
578261
578557
578859
579153
579459
579771
580089
580404
580714
581006
581299
581609
581928
582246
582550
582852
583148
583452
583754
584059
584379
584699
585001
585294
585593
585898
586211
586528
586835
587143
587438
587736
588038
588352
588671
588993
589294
589581
589883
590190
590502
590816
591124
591433
591733
592030
592327
592643
592965
593275
593577
593875
594174
594480
594784
595098
595417
595725
596020
596312
596614
596930
597253
597564
597868
598166
598461
598763
599070
599385
599703
600014
600307
600605
600907
601225
601546
601852
602155
602455
602754
603052
603356
603679
603996
604303
604599
604897
605198
605512
605826
606134
606446
606746
607044
607341
607646
607966
608287
608594
608896
609190
609494
609805
610116
610431
610740
611038
611334
611631
611937
612266
612584
612887
613182
613479
613778
614080
614401
614712
615032
615328
615619
615922
616229
616551
616870
617177
617474
617778
618078
618377
618692
618889
619211
619519
619812
620105
620414
620735
621050
621359
621664
621961
622265
622556
622867
623063
623400
623709
624001
624298
624597
624908
625226
625423
625742
626051
626344
626641
626943
627256
627574
627769
628086
628385
628681
628986
629300
629616
629926
630232
630532
630824
631123
631435
631761
632074
632377
632593
632904
633205
633512
633827
634141
634457
634755
635045
635345
635649
635975
636178
636506
636805
637111
637408
637705
638019
638331
638648
638954
639247
639542
639852
640168
640480
640791
641095
641392
641692
641992
642299
642626
642941
643242
643532
643831
644135
644452
644770
645083
645393
645688
645978
646150
646478
646793
647112
647416
647614
647927
648232
648536
648847
649163
649474
649779
