68
427
775
1140
1481
1815
2149
2506
2878
3226
3578
3915
4111
4588
4958
5339
5705
6104
6469
6873
7276
7676
8047
8420
8795
9181
9569
10121
10685
10884
11440
11808
12163
12500
12845
13222
13632
14062
14456
14839
15210
15606
16010
16393
16778
17151
17526
17920
18316
18668
19033
19399
19795
20175
20572
20931
21294
21667
22045
22416
22783
23177
23602
24023
24443
24838
25222
25604
25982
26371
26774
27170
27536
27918
28302
28706
29089
29448
29785
30139
30531
30964
31409
31847
32254
32687
33113
33503
33881
34252
34616
35005
35400
35756
36107
36463
36835
37279
37770
38188
38582
38978
39378
39766
40160
40528
40907
41294
41688
42078
42458
42829
43208
43599
43994
44378
44765
45136
45499
45879
46285
46641
46953
47338
47712
48033
48187
48477
48629
49000
49384
49771
50164
50535
50712
50901
51254
51614
51990
52181
52384
52762
53137
53496
53863
54240
54405
54652
55020
55393
55761
56150
56544
56945
57326
57707
58077
58465
58862
59266
59644
59995
60364
60779
61173
61572
61946
62316
62691
63084
63482
63862
64241
64608
64985
65383
65784
66153
66531
66904
67288
67674
68065
68444
68789
69163
69519
69895
70269
70720
71150
71617
72049
72450
72832
73211
73579
73995
74383
74757
75125
75503
75883
76298
76696
77054
77427
77808
78189
78639
78977
79336
79710
80091
80471
80838
81220
81545
81891
82269
82668
83123
83539
83825
84125
84338
84784
85201
85575
85781
85976
86333
86712
87060
87464
87640
87854
88041
88220
88614
88983
89391
89793
90180
90545
90940
91337
91730
92101
92473
92844
93241
93619
93999
94359
94711
95052
95425
95848
96322
96742
97145
97338
97538
97956
98343
98702
99061
99434
99813
100203
100574
100937
101295
101658
102028
102394
102765
103210
103614
104032
104450
104834
105219
105593
105975
106371
106788
107170
107331
107583
107938
108331
108728
109134
109524
109879
110292
110702
111092
111490
111855
112237
112644
113037
113431
113811
114192
114563
114983
115370
115761
116134
116516
116885
117302
117576
117709
118087
118470
118863
119253
119667
120050
120419
120804
121207
121385
121618
122009
122391
122748
123103
123475
123879
124256
124632
124992
125369
125756
126161
126535
126915
127298
127673
128072
128486
128852
129230
129615
130007
130411
130798
131178
131546
131941
132333
132724
133091
133447
133788
134148
134529
134916
135395
135837
136246
136644
137064
137438
137818
138205
138589
139001
139388
139765
140138
140525
140930
141318
141708
142083
142460
142870
143276
143681
144071
144454
144836
145254
145659
146048
146449
146828
147241
147651
148060
148439
148833
149225
149632
150044
150435
150814
151209
151600
152009
152394
152776
153132
153525
153910
154292
154662
155034
155406
155784
156185
156574
156934
157307
157690
158067
158461
158831
159189
159547
159948
160421
160882
161280
161675
162073
162156
162455
162824
163212
163566
163925
164312
164709
165101
165480
165858
166234
166621
166862
167104
167411
167750
168140
168513
168893
169295
169676
170039
170414
170790
171176
171570
171950
172324
172678
173062
173241
173439
173814
174175
174526
174864
175240
175668
176114
176518
176900
177276
177668
178062
178427
178775
179152
179490
179838
180054
180407
180616
181019
181389
181779
182148
182548
182915
183275
183641
184029
184414
184791
185155
185505
185863
186346
186804
187201
187592
187969
188357
188762
189150
189494
189872
189999
190220
190610
190994
191352
191689
192047
192418
192871
193331
193558
194127
194542
194939
195308
195687
196061
196423
196776
197164
197546
197903
198137
198361
198817
199094
199231
199652
200035
200408
200785
201179
201384
201564
201963
202337
202695
203062
203456
203826
204203
204597
205053
205484
205734
206295
206693
207055
207422
207797
208193
208565
208917
209283
209636
210005
210447
210878
211254
211630
212003
212393
212798
213180
213537
213931
214322
214698
215085
215460
215827
216201
216608
216983
217344
217717
218061
218428
218896
219376
219795
220197
220585
220976
221213
221728
222078
222436
222792
223201
223655
224038
224425
224809
225213
225598
225989
226360
226729
227114
227518
227890
228261
228624
228993
229369
229742
230121
230471
230937
231356
231771
232169
232576
232956
233362
233738
234125
234504
234859
235221
235580
235987
236369
236742
237116
237475
237827
238291
238791
239195
239628
240012
240431
240845
241212
241578
241973
242375
242774
243152
243517
243872
244239
244643
245025
245419
245782
246145
246537
246942
247338
247729
248113
248498
248903
249130
249302
249484
249679
250042
250424
250812
251203
251599
251962
252310
252668
253014
253233
253409
253710
253859
254247
254611
255013
255401
255787
256149
256496
256830
257047
257171
257602
257943
258290
258618
259075
259478
259909
260290
260656
261011
261374
261734
262100
262461
262945
263182
263653
264172
264539
264938
265304
265666
266068
266461
266837
267201
267546
267918
268496
268688
268964
269356
269771
270164
270559
270973
271361
271735
272116
272505
272895
273263
273620
273976
274439
274879
275291
275672
276037
276404
276913
277182
277553
277891
278281
278645
279033
279418
279783
279991
280133
280473
280928
281403
281854
282241
282622
283019
283422
283817
284211
284579
284941
285334
285729
286112
286485
286848
287219
287600
287982
288339
288731
289154
289554
289935
290314
290669
291014
291372
291719
292098
292478
292835
293185
293545
293895
294288
294658
295023
295376
295723
296109
296496
296882
297248
297614
297966
298337
298724
299149
299576
299978
300364
300765
301176
301418
301591
301889
302292
302705
303098
303498
303876
304244
304619
304998
305359
305738
306113
306664
306949
307368
307765
308171
308537
308915
309325
309702
310066
310432
310603
310792
311152
311524
311992
312267
312829
313231
313625
314029
314419
314793
315175
315580
315972
316360
316750
317114
317504
317905
318298
318680
319070
319442
319838
320253
320639
321021
321387
321766
322151
322554
322931
323302
323672
324053
324446
324848
325232
325595
325980
326366
326599
327136
327519
327876
328244
328623
329010
329379
329732
330094
330466
330977
331440
331845
332243
332619
333016
333418
333810
334169
334316
335313
335698
336214
336416
336770
337147
337618
338060
338477
338881
339275
339695
340089
340471
340840
341223
341598
342003
342370
342744
343102
343478
343859
344239
344632
345170
345612
346039
346433
346828
347207
347576
347963
348355
348742
349120
349483
349843
350230
350626
351000
351388
351755
352128
352519
352911
353286
353648
354031
354416
354812
355217
355594
355967
356353
356745
357143
357516
357891
358278
358674
359078
359490
359868
360252
360650
361041
361443
361845
362226
362621
362993
363397
363799
364179
364547
364757
364925
365305
365687
366083
366450
366792
367042
367191
367547
367901
368275
368633
368959
369452
369604
369870
370657
371036
371408
371572
371804
372222
372540
372959
373333
373693
374080
374459
374832
375178
375534
375917
376334
376717
377089
377431
377767
378123
378472
378823
379167
379508
379711
379877
380181
380389
380537
380825
381061
381215
381544
381872
382194
382539
382701
382842
383238
383581
383922
384253
384593
384944
385295
385624
385951
386264
386607
386943
387281
387615
387950
388237
388559
388880
389205
389391
389855
390296
390482
390821
391189
391535
391872
392206
392531
392841
393062
393325
393502
393831
394134
394433
394742
395043
395343
395662
395980
396309
396615
396908
397225
397551
397890
398238
398579
398910
399224
399559
399703
399906
400233
400587
400934
401255
401606
401962
402332
402679
403022
403356
403693
404039
404419
404784
405113
405441
405602
405771
406107
406321
406547
406914
407280
407630
408127
408535
408896
409282
409617
409946
410289
410672
411046
411490
411826
412180
412537
412933
413503
413933
414351
414737
415124
415511
415862
416222
416655
417005
417397
417843
418183
418565
418953
419349
419751
420133
420503
420847
421238
421655
421915
422141
422510
422909
423302
423712
424105
424491
424849
425234
425613
426006
426450
427052
427415
427827
428239
428649
429028
429394
429758
430164
430539
430946
431485
431954
432398
432518
432805
433182
433563
433924
434303
434685
435080
435656
436058
436469
436871
437281
437665
437993
438380
438745
439114
439524
439978
440251
440404
440848
441255
441638
442022
442380
442736
443115
443497
443867
444189
444585
444941
445340
445724
446101
446459
446820
447182
447576
448046
448390
448743
449109
449475
449847
450212
450385
450550
450884
451234
451580
451957
452307
452642
452978
453312
453652
454013
454362
454683
455033
455369
455692
456038
456403
456747
457056
457255
457739
458072
458435
458786
459106
459450
459786
460118
460486
460843
461206
461540
461886
462231
462582
462919
463256
463600
463922
464250
464401
464605
464930
465285
465631
465983
466178
466302
466635
466999
467336
467658
467975
468292
468604
468949
469308
469632
469974
470315
470644
470984
471316
471654
471988
472295
472603
472910
473245
473564
473880
474205
474521
474835
475161
475498
475840
476166
476482
476799
477115
477432
477774
478132
478469
478785
479127
479451
479650
479788
480145
480487
480838
481152
481508
481839
482180
482533
482871
483184
483336
483509
483856
484185
484524
484863
485180
485505
485826
486170
486519
486856
487183
487516
487849
488194
488529
488881
489214
489568
489911
490260
490597
490799
491099
491326
491655
491970
492292
492612
492943
493281
493595
493902
494201
494506
494856
494999
495182
495522
495857
496170
496483
496798
497135
497479
497815
498136
498459
498782
499109
499442
499788
500109
500413
500743
501055
501390
501738
502082
502419
502728
503079
503429
503765
504129
504477
504802
505126
505493
505839
506174
506534
506863
507185
507548
507916
508268
508611
508944
509282
509608
509806
510311
510672
510988
511317
511653
511981
512341
512704
513037
513387
513707
514085
514454
514813
515182
515520
515870
516203
516591
516962
517311
517652
518018
518349
518727
519082
519425
519763
520129
520446
520785
521170
521510
521877
522235
522566
522968
523357
523718
524102
524460
524793
525159
525511
525890
526225
526419
526927
527303
527644
528022
528243
528747
528956
529364
529755
530095
530463
530814
531138
531510
531888
532237
532604
532962
533325
533693
534072
534432
534811
535169
535503
535881
536234
536590
536957
537275
537644
538011
538361
538752
539115
539447
539795
540134
540498
540871
541216
541552
541911
542265
542615
542978
543360
543689
544079
544442
544827
545202
545548
545915
546264
546419
546662
547007
547398
547744
548108
548443
548864
549268
549655
550026
550395
550732
551151
551531
551881
552283
552624
553092
553563
553966
554326
554693
555066
555443
555844
556205
556554
556989
557449
557876
558283
558668
559049
559398
559829
560234
560627
560996
561365
561723
562156
562562
562950
563321
563695
564071
564453
564848
565214
565576
565940
566311
566649
567028
567374
567736
568099
568534
568771
568964
569323
569523
569710
570076
570430
570812
571171
571505
571906
572229
572641
573019
573354
573718
574047
574230
574400
574768
575169
575518
575895
576260
576613
577019
577372
577781
578100
578474
578838
579180
579570
579923
580280
580620
580791
581296
581636
581963
582328
582658
582979
583318
583730
584063
584397
584776
585093
585435
585831
586205
586532
586917
587052
587289
587620
588015
588373
588739
589049
589423
589749
590129
590479
590818
591175
591495
591837
592223
592563
592937
593269
593625
593981
594328
594725
595048
595396
595725
596077
596786
597137
597477
597821
598169
598566
598893
599084
599270
599628
599993
600343
600729
601092
601476
601660
601811
602154
602511
602889
603255
603612
603958
604277
604633
604995
605354
605731
606073
606380
606580
606741
607078
607430
607870
608101
608419
608747
608851
609065
609388
609722
610074
610370
610662
610982
611288
611631
611993
612262
612574
612871
613166
613373
613790
614099
614404
614706
615003
615299
615608
615937
616254
616579
616889
617204
617511
617819
618146
618462
618761
619044
619239
619625
619910
620203
620517
620811
621094
621372
621499
621743
621935
622232
622401
622523
622839
623127
623429
623714
623995
624301
624608
624912
625217
625515
625791
626089
626375
626701
627003
627126
627304
627603
627917
628153
628465
628767
629080
629393
629694
629988
630284
630573
630886
631194
631403
631831
632105
632407
632708
632926
633149
633323
633630
633949
634240
634528
634829
635129
635445
637928
638860
639161
639812
640444
641571
641721
642070
642417
642758
643080
643404
643732
644061
644390
644724
645042
645305
645624
645929
646249
646570
646903
647218
647527
647842
648175
648511
648833
649148
649452
649749
