102
335
568
801
1040
1279
1514
1759
1988
2213
2429
2658
2875
3109
3345
3578
3799
4033
4259
4474
4683
4901
5121
5352
5584
5812
6041
6254
6475
6691
6911
7127
7350
7577
7817
8061
8286
8507
8731
8965
9190
9416
9653
9896
10141
10384
10614
10839
11068
11304
11541
11778
12023
12271
12516
12758
12991
13222
13457
13709
13956
14205
14455
14707
14951
15195
15430
15663
15911
16175
16431
16679
16929
17171
17417
17656
17897
18147
18416
18672
18922
19169
19409
19654
19902
20145
20393
20661
20923
21174
21419
21662
21904
22153
22401
22655
22915
23183
23434
23672
23913
24152
24401
24658
24917
25173
25441
25693
25932
26172
26416
26672
26933
27193
27448
27958
28199
28446
28693
28954
29223
29484
29736
29997
30249
30494
30738
30992
31253
31524
31785
32036
32289
32545
32794
33036
33286
33553
33819
34081
34328
34573
34831
35079
35325
35583
35846
36112
36372
36622
36867
37124
37376
37632
37895
38158
38424
38685
38931
39172
39427
39684
39946
40206
40469
40724
40978
41223
41466
41716
41983
42245
42498
42758
43007
43259
43509
43757
44005
44278
44541
44795
45049
45298
45545
45786
46040
46286
46551
46814
47070
47311
47553
47790
48038
48285
48540
48797
49066
49322
49562
49803
50042
50293
50552
50804
51055
51323
51574
51816
52053
52297
52544
52804
53060
53312
53571
53827
54067
54301
54543
54786
55042
55300
55554
55798
56050
56290
56526
56766
57015
57277
57544
57797
58042
58293
58542
58789
59032
59290
59555
59823
60078
60324
60576
60829
61077
61327
61591
61853
62120
62373
62616
62860
63115
63365
63613
63872
64124
64382
64629
64870
65102
65350
65602
65856
66106
66364
66621
66872
67112
67349
67602
67864
68126
68382
68638
68888
69139
69379
69623
69873
70141
70401
70655
70909
71153
71399
71649
71896
72143
72410
72673
72930
73179
73426
73670
73923
74172
74425
74690
74964
75220
75461
75705
75947
76199
76457
76720
76977
77249
77505
77749
77994
78242
78499
78765
79025
79281
79544
79798
80045
80284
80535
80791
81059
81318
81573
81829
82085
82331
82572
82823
83079
83347
83610
83865
84114
84373
84616
84792
85108
85362
85630
85890
86138
86374
86622
86860
87096
87336
87585
87834
88078
88314
88543
88769
89013
89247
89484
89725
89973
90224
90472
90701
90929
91168
91418
91667
91913
92166
92416
92670
92914
93154
93399
93664
93926
94183
94448
94706
94964
95217
95469
95720
95997
96270
96533
96798
97056
97315
97571
97826
98085
98366
98638
98895
99152
99402
99660
99914
100171
100434
100715
100977
101228
101477
101721
101974
102230
102486
102744
103017
103278
103525
103773
104021
104275
104538
104810
105069
105338
105600
105849
106091
106343
106598
106865
107131
107390
107650
107914
108164
108407
108663
108925
109197
109465
109728
109984
110244
110493
110738
110995
111257
111530
111796
112052
112302
112565
112815
113069
113333
113600
113876
114141
114394
114638
114900
115155
115409
115677
115942
116211
116476
116726
116969
117235
117495
117755
118020
118282
118539
118789
119028
119265
119521
119776
120038
120292
120521
120774
121008
121235
121462
121693
121945
122183
122422
122656
122885
123111
123346
123568
123794
124030
124281
124519
124751
124983
125213
125446
125681
125910
126147
126389
126644
126885
127114
127345
127574
127810
128050
128289
128531
128786
129042
129288
129520
129754
129988
130234
130483
130735
130986
131249
131500
131739
131976
132217
132470
132736
132991
133244
133509
133767
134013
134253
134504
134758
135027
135291
135548
135807
136068
136315
136557
136810
137069
137340
137604
137866
138111
138367
138613
138856
139108
139369
139638
139907
140161
140403
140653
140904
141156
141408
141673
141938
142198
142442
142683
142930
143184
143437
143689
143949
144203
144460
144707
144948
145188
145449
145706
145964
146224
146481
146736
146991
147238
147479
147744
148015
148279
148532
148789
149040
149292
149534
149780
150047
150318
150582
150831
151084
151331
151582
151828
152079
152346
152618
152879
153113
153372
153614
153870
154120
154358
154638
154910
155167
155410
155652
155891
156139
156394
156648
156899
157163
157409
157647
157886
158128
158378
158639
158901
159156
159421
159677
159919
160158
160408
160665
160933
161192
161449
161710
161964
162213
162453
162705
162963
163235
163496
163750
164004
164261
164511
164756
165014
165276
165548
165810
166062
166311
166571
166820
167066
167327
167590
167861
168123
168375
168622
168884
169139
169395
169663
169928
170199
170459
170712
170958
171218
171477
171739
172002
172264
172527
172787
173032
173273
173532
173795
174058
174313
174572
174821
175069
175309
175548
175804
176066
176334
176583
176839
177080
177329
177579
177825
178077
178348
178607
178858
179099
179340
179586
179836
180082
180329
180593
180862
181120
181358
181604
181852
182108
182363
182623
182895
183169
183426
183660
183924
184177
184451
184717
184981
185256
185523
185775
186022
186277
186533
186806
187072
187334
187601
187861
188111
188357
188614
188879
189158
189421
189678
189939
190194
190430
190687
190945
191221
191494
191754
192004
192264
192515
192764
193013
193273
193542
193812
194065
194305
194559
194811
195060
195312
195579
195844
196111
196362
196605
196854
197112
197367
197621
197887
198150
198412
198660
198906
199160
199426
199692
199955
200226
200492
200756
201003
201252
201513
201782
202052
202316
202584
202841
203102
203354
203607
203872
204151
204424
204689
204953
205207
205468
205725
205982
206254
206538
206808
207065
207325
207579
207837
208094
208358
208630
208908
209172
209418
209671
209919
210175
210434
210697
210964
211234
211491
211736
211983
212230
212495
212760
213023
213285
213555
213806
214049
214301
214554
214825
215095
215358
215622
215893
216143
216388
216903
217176
217448
217710
217967
218231
218484
218729
218989
219255
219529
219726
220051
220304
220568
220820
221073
221336
221602
221875
222135
222383
222635
222895
223148
223402
223670
223935
224207
224462
224707
224962
225223
225485
225745
226018
226285
226550
226800
227046
227302
227567
227834
228096
228366
228632
228892
229140
229388
229649
229920
230192
230452
230716
230976
231236
231482
231728
231997
232269
232535
232796
233053
233303
233559
233804
234052
234319
234592
234850
235110
235364
235615
235868
236123
236383
236652
236931
237197
237449
237702
237953
238211
238474
238740
239010
239287
239547
239793
240043
240295
240560
240827
241094
241363
241634
241887
242133
242387
242641
242914
243184
243449
243714
243981
244234
244480
244739
245000
245279
245537
245815
246072
246341
246598
246845
247110
247379
247654
247919
248175
248430
248692
248948
249199
249467
249735
250008
250268
250517
250776
251036
251297
251559
251831
252105
252376
252627
252872
253130
253388
253649
253913
254180
254447
254711
254962
255205
255465
255729
255993
256253
256520
256784
257042
257291
257538
257804
258074
258340
258605
258866
259128
259385
259634
259885
260158
260427
260693
260958
261211
261467
261723
261974
262228
262504
262773
263029
263286
263536
263790
264050
264304
264565
264847
265117
265372
265624
265874
266129
266389
266652
266918
267196
267460
267712
267961
268211
268472
268740
269007
269270
269542
269798
270047
270291
270540
270801
271076
271340
271598
271863
272117
272364
272607
272862
273122
273392
273655
273909
274167
274423
274670
274915
275174
275436
275704
275965
276219
276467
276723
276971
277219
277482
277748
278020
278283
278536
278787
279051
279307
279564
279833
280101
280375
280632
280880
281135
281400
281661
281924
282194
282458
282724
282977
283224
283482
283751
284018
284281
284552
284813
285071
285320
285566
285825
286096
286366
286627
286890
287148
287406
287654
287903
288170
288445
288714
288973
289231
289485
289743
289993
290243
290518
290789
291051
291311
291564
291818
292078
292334
292592
292869
293139
293396
293650
293901
294156
294417
294677
294940
295216
295485
295738
295984
296235
296495
296761
297023
297286
297564
297825
298075
298323
298575
298837
299108
299375
299638
299910
300165
300411
300659
300911
301174
301450
301716
301970
302233
302487
302736
302985
303244
303515
303791
304056
304310
304514
304822
305077
305332
305601
305876
306147
306411
306662
306920
307176
307435
307697
307970
308243
308515
308768
309015
309273
309532
309794
310061
310330
310597
310862
311110
311356
311613
311880
312144
312405
312672
312930
313188
313434
313677
313939
314210
314478
314740
315003
315259
315515
315765
316015
316284
316554
316823
317086
317344
317601
317860
318114
318371
318649
318920
319184
319444
319694
319950
320211
320467
320727
321007
321273
321528
321778
322027
322282
322541
322801
323063
323340
323603
323849
324097
324342
324600
324857
325122
325384
325657
325915
326162
326412
326659
326921
327188
327453
327714
327983
328235
328477
328723
328971
329233
329505
329766
330021
330281
330538
330779
331029
331283
331547
331816
332078
332328
332582
332829
333074
333320
333578
333844
334113
334372
334623
334874
335124
335374
335614
335889
336149
336421
336674
336921
337169
337428
337680
337932
338198
338461
338728
338983
339230
339479
339742
340002
340260
340531
340793
341056
341312
341560
341808
342078
342346
342608
342875
343135
343394
343649
343899
344151
344428
344701
344962
345224
345477
345738
345990
346243
346503
346785
347055
347315
347572
347820
348076
348328
348583
348848
349126
349391
349644
349899
350146
350401
350658
350923
351191
351468
351732
351982
352234
352486
352746
353007
353274
353544
353818
354077
354323
354575
354832
355098
355362
355624
355896
356159
356407
356651
356903
357160
357433
357700
357962
358234
358495
358746
358997
359257
359529
359809
360079
360339
360604
360860
361111
361363
361626
361902
362178
362444
362699
362965
363217
363468
363728
363994
364267
364536
364793
365041
365300
365550
365800
366065
366329
366597
366864
367116
367359
367616
367870
368127
368388
368656
368922
369186
369434
369680
369937
370204
370471
370730
370991
371263
371518
371767
372013
372274
372543
372813
373072
373336
373590
373845
374079
374342
374603
374878
375146
375406
375662
375909
376162
376414
376665
376932
377210
377475
377728
377981
378227
378480
378735
378992
379263
379539
379800
380047
380298
380548
380805
381064
381603
381878
382141
382389
382640
382895
383160
383423
383688
383955
384220
384473
384719
384969
385223
385496
385763
386023
386289
386545
386793
387035
387289
387548
387817
388082
388339
388601
388856
389105
389352
389612
389882
390157
390421
390675
390933
391186
391437
391689
391943
392222
392494
392754
393001
393257
393512
393763
394016
394283
394545
394825
395075
395322
395579
395836
396091
396350
396616
396882
397147
397399
397644
397900
398161
398423
398690
398958
399224
399483
399732
399978
400234
400499
400769
401031
401295
401554
401812
402061
402311
402571
402845
403112
403371
403630
403878
404132
404382
404633
404895
405175
405438
405694
405948
406193
406448
406703
406961
407222
407501
407767
407967
408268
408513
408775
409036
409304
409568
409847
410110
410356
410606
410857
411120
411320
411651
411918
412197
412450
412694
412946
413196
413462
413728
413991
414255
414523
414769
415011
415261
415511
415776
416046
416308
416562
416823
417072
417315
417565
417822
418092
418359
418619
418870
419127
419374
419619
419871
420131
420340
420667
420925
421181
421441
421691
421939
422204
422467
422740
423001
423251
423498
423757
424009
424262
424530
424793
425061
425320
425569
425815
426077
426337
426594
426860
427124
427389
427640
427886
428137
428403
428667
428927
429192
429452
429712
429960
430207
430457
430727
430990
431249
431510
431762
432016
432269
432517
432766
433041
433309
433569
433827
434078
434332
434592
434845
435098
435374
435646
435906
436156
436408
436662
436920
437176
437435
437708
437976
438235
438481
438732
438986
439249
439509
439772
440044
440310
440565
440810
441063
441320
441590
441855
442115
442384
442645
442893
443134
443388
443645
443915
444176
444433
444700
444959
445208
445452
445711
445978
446253
446517
446771
447030
447285
447534
447783
448040
448313
448589
448849
449100
449358
449612
449865
450120
450383
450652
450926
451182
451426
451683
451934
452187
452449
452718
452988
453257
453511
453756
454016
454272
454528
454793
455060
455329
455587
455836
456082
456341
456600
456861
457127
457387
457650
457904
458151
458396
458660
458924
459183
459447
459705
459962
460215
460461
460708
460981
461248
461506
461768
462024
462277
462530
462780
463028
463299
463567
463827
464083
464333
464583
464839
465089
465344
465613
465882
466144
466392
466636
466883
467139
467391
467646
467913
468186
468443
468686
468932
469180
469438
469700
469964
470230
470505
470759
471001
471252
471502
471767
472034
472301
472562
472833
473085
473329
473580
473835
474105
474375
474640
474897
475162
475413
475655
475908
476168
476441
476708
476966
477219
477479
477726
477971
478228
478489
478760
479026
479279
479528
479787
480039
480288
480551
480816
481085
481348
481599
481844
482104
482356
482609
482873
483137
483405
483659
483906
484153
484414
484671
484927
485190
485453
485716
485966
486208
486455
486720
486978
487235
487498
487755
488015
488267
488512
488759
489028
489293
489552
489815
490068
490322
490572
490821
491069
491344
491612
491870
492128
492377
492633
492882
493131
493386
493662
493925
494180
494433
494678
494930
495184
495436
495695
495970
496233
496487
496737
496985
497235
497497
497757
498015
498288
498551
498804
499048
499297
499551
499816
500082
500340
500609
500874
501124
501363
501614
501870
502135
502396
502657
502919
503176
503422
503663
503914
504171
504442
504708
504968
505226
505486
505735
505980
506237
506497
506771
507040
507296
507545
507807
508059
508305
508570
508834
509105
509368
509620
509869
510131
510384
510636
510901
511160
511437
511692
511945
512196
512460
512718
512979
513246
513510
513775
514025
514270
514521
514783
515043
515303
515569
515827
516087
516336
516578
516831
517097
517363
517618
517883
518139
518392
518639
518883
519136
519407
519673
519929
520189
520442
520693
520940
521190
521449
521723
521989
522249
522507
522753
523007
523257
523509
523771
524045
524303
524558
524806
525048
525300
525550
525801
526059
526331
526586
526825
527067
527309
527556
527806
528062
528315
528582
528838
529081
529320
529557
529801
530046
530294
530543
530796
531047
531274
531499
531707
531929
532140
532374
532614
532862
533100
533351
533577
533808
534036
534273
534513
534762
535006
535248
535484
535730
535962
536193
536435
536686
536949
537213
537462
537700
537944
538190
538433
538675
538932
539189
539450
539699
539943
540187
540444
540699
540954
541223
541490
541765
542022
542274
542534
542803
543068
543337
543609
543880
544152
544408
544659
544927
545192
545471
545740
546008
546270
546530
546778
547023
547285
547552
547814
548077
548335
548592
548850
549103
549356
549632
549906
550171
550436
550688
550950
551208
551463
551730
552017
552289
552552
552816
553069
553330
553589
553852
554128
554409
554680
554939
555198
555458
555725
555992
556262
556547
556826
557087
557343
557600
557868
558139
558406
558678
558963
559226
559478
559731
559985
560255
560524
560794
561060
561335
561587
561831
562084
562338
562606
562878
563146
563404
563672
563924
564167
564420
564674
564943
565207
565461
565707
565947
566180
566417
566637
566884
567136
567389
567624
567869
568098
568354
568566
568810
569050
569299
569544
569714
569778
570029
570268
570348
570471
570727
570961
571194
571439
571680
571928
572170
572399
572623
572861
573110
573359
573606
573862
574115
574367
574616
574859
575107
575377
575644
575904
576169
576429
576688
576938
577189
577448
577726
577996
578262
578527
578784
579044
579297
579550
579820
580100
580355
580627
580881
581134
581393
581643
581893
582163
582438
582700
582952
583204
583454
583688
583969
584225
584509
584779
585041
585294
585550
585810
586076
586343
586613
586892
587159
587412
587665
587914
588176
588444
588711
588976
589255
589516
589762
590015
590267
590534
590808
591078
591350
591628
591888
592141
592405
592675
592955
593230
593503
593776
594041
594301
594558
594825
595106
595393
595666
595928
596189
596454
596707
596973
597242
597523
597802
598065
598318
598585
598842
599096
599364
599633
599909
600180
600437
600688
600960
601223
601486
601762
602032
602306
602565
602817
603070
603338
603543
603873
604140
604414
604681
604933
605184
605445
605722
605997
606262
606533
606797
607060
607311
607557
607832
608044
608381
608648
608916
609178
609441
609697
609957
610245
610521
610786
611053
611313
611579
611843
612109
612383
612667
612941
613201
613456
613713
613979
614241
614510
614796
615073
615339
615599
615858
616125
616397
616673
616949
617239
617506
617761
618022
618283
618552
618824
619096
619374
619646
619903
620153
620410
620674
620949
621221
621488
621765
622028
622280
622537
622799
623077
623358
623628
623899
624172
624427
624677
624940
625206
625487
625759
626026
626291
626559
626818
627073
627346
627623
627907
628179
628438
628700
628967
629229
629495
629771
630052
630335
630599
630854
631122
631388
631935
632210
632490
632753
633009
633261
633531
633794
634060
634333
634600
634867
635126
635381
635641
635918
636191
636463
636740
637005
637268
637528
637783
638053
638338
638615
638883
639153
639420
639687
639947
640209
640495
640763
641017
641264
641504
641745
641986
642226
642468
642733
642987
643243
643485
643721
643957
644203
644453
644701
644961
645228
645482
645722
645964
646206
646457
646715
646980
647248
647526
647789
648040
648296
648558
648796
649105
649375
649660
649933
