196
487
803
1127
1428
1735
2037
2341
2640
2961
3278
3578
3885
4193
4493
4785
5101
5418
5725
6044
6341
6636
6934
7261
7578
7883
8193
8495
8799
9103
9421
9731
10040
10360
10668
10969
11274
11603
11934
12252
12571
12885
13195
13511
13844
14167
14479
14797
15101
15399
15715
16033
16359
16663
16971
17271
17562
17885
18202
18516
18821
19141
19449
19748
20070
20395
20718
21033
21345
21651
21951
22283
22614
22940
23252
23566
23875
24181
24502
24827
25136
25452
25765
26065
26369
26694
27029
27353
27672
27981
28297
28620
28954
29280
29588
29901
30212
30521
30835
31158
31495
31811
32128
32439
32741
33071
33403
33725
34027
34331
34642
34947
35273
35603
35925
36242
36560
36866
37169
37498
37826
38135
38435
38734
39034
39336
39667
39986
40298
40617
40930
41239
41550
41875
42204
42522
42840
43141
43443
43759
44087
44410
44716
45029
45341
45649
45965
46299
46629
46945
47256
47561
47861
48186
48516
48846
49148
49453
49763
50067
50386
50697
51013
51317
51630
51938
52236
52554
52887
53207
53518
53819
54104
54428
54758
55078
55388
55700
56012
56314
56604
56920
57236
57546
57864
58167
58467
58771
59096
59416
59722
60036
60336
60641
60938
61251
61566
61873
62189
62487
62780
63070
63387
63706
64018
64320
64614
64915
65213
65531
65841
66146
66451
66751
67042
67322
67622
67928
68237
68524
68809
69091
69367
69665
69977
70283
70576
70878
71177
71465
71753
72062
72372
72674
72980
73281
73575
73863
74179
74488
74792
75080
75380
75669
75957
76269
76582
76891
77191
77488
77775
78055
78364
78676
78987
79289
79596
79893
80195
80512
80830
81141
81445
81755
82060
82360
82669
82990
83316
83634
83950
84258
84561
84888
85217
85539
85845
86156
86459
86768
87091
87411
87735
88041
88352
88654
88951
89264
89593
89908
90213
90517
90816
91114
91427
91750
92060
92362
92679
92977
93270
93590
93907
94217
94526
94827
95120
95412
95732
96050
96361
96666
96964
97264
97563
97883
98201
98518
98828
99136
99428
99721
100033
100363
100682
100987
101289
101599
101900
102220
102542
102863
103161
103470
103770
104065
104387
104709
105016
105314
105619
105919
106213
106535
106855
107168
107480
107802
108108
108404
108725
109042
109359
109668
109971
110268
110558
110884
111207
111520
111823
112129
112435
112745
113062
113377
113701
114019
114332
114629
114931
115258
115584
115890
116202
116506
116814
117105
117426
117744
118047
118359
118670
118968
119267
119585
119911
120219
120530
120834
121130
121422
121747
122066
122369
122678
122987
123292
123583
123899
124218
124521
124835
125137
125429
125719
126047
126369
126678
126981
127287
127591
127893
128218
128537
128846
129168
129473
129771
130070
130396
130719
131032
131345
131650
131960
132275
132599
132920
133230
133540
133844
134152
134457
134774
135100
135407
135716
136010
136312
136619
136949
137280
137590
137904
138211
138508
138810
139128
139452
139756
140066
140365
140660
140968
141291
141601
141901
142209
142512
142815
143123
143445
143767
144079
144397
144700
145001
145319
145644
145977
146290
146594
146890
147190
147513
147838
148157
148465
148774
149076
149363
149683
150007
150343
150654
150960
151264
151570
151896
152225
152544
152852
153165
153477
153780
154098
154420
154740
155058
155367
155666
155968
156292
156615
156925
157236
157535
157841
158152
158479
158803
159117
159444
159755
160059
160366
160697
161021
161333
161643
161940
162235
162540
162860
163185
163493
163808
164113
164419
164728
165055
165374
165683
165989
166293
166597
166912
167236
167565
167873
168184
168483
168791
169110
169421
169738
170048
170358
170665
170961
171276
171595
171919
172225
172524
172821
173111
173426
173752
174069
174370
174681
174985
175282
175591
175910
176231
176539
176854
177151
177435
177755
178081
178390
178685
178987
179282
179576
179885
180195
180513
180824
181137
181434
181727
182041
182367
182694
183005
183309
183609
183921
184241
184560
184881
185187
185495
185798
186094
186348
186718
187043
187342
187629
187919
188206
188503
188818
189124
189417
189722
190022
190321
190608
190944
191268
191576
191888
192205
192509
192819
193156
193485
193789
194093
194396
194706
195024
195342
195679
195996
196311
196617
196912
197238
197559
197876
198176
198486
198777
199070
199382
199692
199995
200292
200597
200890
201180
201486
201795
202105
202400
202699
202985
203281
203572
203886
204200
204495
204799
205097
205393
205681
205985
206297
206598
206908
207214
207513
207800
208112
208428
208733
209030
209329
209626
209919
210234
210542
210852
211150
211451
211746
212034
212348
212664
212972
213273
213574
213864
214151
214462
214779
215093
215387
215687
215987
216283
216580
216889
217199
217504
217803
218095
218381
218674
218984
219295
219590
219891
220179
220466
220750
221054
221363
221665
221957
222260
222555
222841
223149
223465
223773
224066
224359
224658
224947
225256
225575
225891
226188
226501
226803
227104
227420
227742
228059
228366
228684
228988
229287
229612
229943
230256
230561
230872
231182
231477
231798
232118
232437
232738
233049
233345
233639
233963
234292
234618
234923
235141
235509
235817
236145
236468
236781
237090
237403
237703
238002
238322
238652
238975
239286
239595
239895
240197
240530
240852
241167
241481
241791
242092
242385
242703
243015
243331
243650
243952
244253
244558
244889
245204
245516
245835
246142
246448
246751
247075
247391
247697
248020
248328
248623
248926
249248
249580
249896
250209
250508
250809
251112
251437
251753
252062
252372
252673
252974
253267
253581
253899
254214
254526
254830
255135
255442
255772
256087
256390
256698
257011
257309
257614
257936
258259
258570
258884
259182
259469
259766
260093
260410
260711
261019
261323
261625
261940
262263
262585
262906
263225
263535
263838
264162
264481
264818
265130
265438
265736
266034
266345
266659
266973
267279
267582
267878
268173
268480
268798
269128
269438
269750
270051
270351
270680
271015
271341
271648
271954
272255
272547
272864
273175
273483
273791
274103
274401
274698
275025
275353
275676
275968
276269
276569
276860
277176
277498
277810
278120
278422
278718
279012
279330
279648
279967
280268
280572
280861
281151
281476
281799
282112
282417
282730
283043
283341
283655
283975
284303
284614
284916
285212
285511
285835
286159
286479
286777
287084
287388
287682
287989
288301
288619
288926
289231
289531
289837
290164
290501
290828
291141
291459
291769
292082
292417
292744
293057
293379
293693
294003
294305
294637
294960
295272
295585
295891
296192
296507
296833
297155
297458
297764
298059
298358
298657
298974
299281
299584
299894
300195
300491
300789
301107
301426
301731
302038
302336
302636
302931
303247
303558
303860
304164
304460
304754
305043
305350
305672
305982
306283
306581
306884
307177
307496
307808
308120
308427
308733
309031
309328
309644
309962
310286
310603
310905
311200
311492
311817
312133
312439
312730
313038
313334
313627
313935
314247
314551
314849
315153
315443
315732
316046
316365
316687
316983
317286
317583
317876
318183
318489
318797
319093
319392
319679
319962
320249
320564
320880
321181
321472
321774
322069
322361
322679
322986
323285
323581
323882
324165
324440
324749
325058
325361
325656
325954
326232
326521
326838
327153
327469
327768
328064
328354
328651
328962
329276
329587
329902
330209
330505
330796
331105
331421
331726
332027
332325
332618
332916
333210
333526
333840
334148
334456
334765
335075
335377
335696
336025
336338
336652
336959
337271
337581
337908
338232
338543
338851
339160
339460
339764
340083
340405
340715
341024
341319
341613
341909
342236
342553
342853
343159
343463
343756
344063
344381
344702
345009
345322
345624
345921
346225
346537
346847
347152
347452
347742
348039
348342
348653
348953
349249
349552
349846
350140
350421
350731
351039
351352
351651
351948
352242
352527
352851
353176
353490
353789
354097
354400
354697
355016
355335
355646
355955
356262
356563
356856
357179
357504
357827
358133
358441
358739
359034
359348
359661
359966
360271
360571
360861
361144
361454
361764
362080
362381
362685
362985
363283
363593
363909
364224
364528
364834
365133
365425
365730
366052
366380
366685
366992
367294
367594
367917
368247
368571
368878
369193
369505
369807
370127
370454
370770
371081
371388
371689
371988
372315
372638
372956
373263
373574
373878
374179
374501
374828
375139
375462
375774
376077
376370
376689
377009
377323
377635
377937
378236
378540
378864
379185
379492
379812
380118
380421
380723
381047
381370
381690
382004
382307
382612
382918
383245
383572
383878
384191
384500
384809
385122
385448
385779
386084
386402
386716
387025
387344
387668
387991
388304
388608
388910
389211
389537
389859
390175
390477
390787
391087
391382
391699
392024
392348
392661
392970
393270
393574
393904
394230
394550
394868
395183
395498
395807
396132
396454
396781
397105
397414
397725
398035
398364
398686
398993
399302
399602
399907
400223
400551
400876
401182
401497
401817
402127
402444
402785
403118
403432
403746
404050
404356
404689
405018
405342
405657
405976
406279
406573
406899
407220
407542
407855
408166
408466
408776
409104
409432
409748
410071
410382
410693
411004
411331
411651
411969
412286
412589
412887
413196
413524
413855
414166
414483
414793
415099
415408
415722
416043
416346
416662
416973
417273
417583
417909
418232
418541
418845
419150
419443
419769
420106
420440
420753
421076
421400
421717
422052
422388
422703
423024
423334
423637
423945
424272
424599
424904
425221
425531
425838
426151
426481
426812
427131
427456
427766
428069
428405
428746
429078
429406
429727
430051
430694
431027
431350
431678
432000
432317
432637
432970
433309
433624
433941
434250
434555
434876
435203
435528
435837
436156
436465
436766
437088
437420
437748
438062
438372
438676
438975
439305
439632
439947
440253
440569
440881
441194
441523
441848
442165
442489
442799
443101
443404
443735
444067
444389
444713
445022
445336
445654
445976
446300
446607
446916
447216
447505
447815
448135
448464
448769
449071
449371
449668
449971
450290
450602
450900
451205
451504
451800
452104
452424
452742
453056
453377
453687
453983
454303
454636
454956
455258
455574
455874
456174
456487
456804
457123
457436
457743
458044
458330
458645
458958
459277
459570
459868
460154
460447
460747
461059
461368
461661
461962
462259
462558
462852
463159
463473
463774
464079
464364
464646
464927
465235
465546
465847
466140
466443
466744
467035
467349
467662
467979
468285
468589
468881
469167
469478
469800
470115
470409
470710
471004
471291
471602
471914
472223
472522
472826
473120
473409
473710
474021
474334
474632
474926
475207
475499
475792
476100
476403
476699
477000
477293
477587
477871
478178
478491
478804
479103
479406
479705
480002
480326
480650
480962
481266
481575
481881
482174
482483
482798
483109
483410
483712
484005
484295
484610
484936
485256
485554
485857
486149
486441
486759
487074
487383
487683
487988
488287
488575
488884
489198
489512
489807
490095
490379
490656
490947
491246
491535
491818
492104
492384
492660
492932
493224
493513
493815
494098
494388
494669
494955
495241
495555
495871
496166
496465
496755
497048
497321
497615
497911
498202
498483
498765
499037
499310
499582
499879
500174
500460
500739
501016
501291
501567
501867
502158
502445
502722
503012
503290
503566
503833
504129
504418
504713
504997
505280
505555
505828
506124
506422
506717
506995
507284
507562
507841
508114
508401
508691
508986
509269
509550
509820
510097
510378
510679
510979
511267
511558
511840
512126
512403
512702
512992
513297
513580
513871
514160
514441
514730
515036
515343
515638
515928
516221
516510
516801
517121
517428
517728
518032
518335
518626
518910
519218
519521
519830
520133
520428
520718
521001
521310
521611
521902
522184
522474
522755
523037
523314
523608
523904
524206
524498
524791
525076
525356
525655
525964
526272
526561
526851
527148
527443
527746
528063
528382
528681
528993
529293
529586
529880
530200
530517
530817
531112
531403
531698
532005
532322
532637
532934
533244
533544
533837
534134
534449
534751
535056
535365
535661
535948
536237
536542
536847
537151
537446
537735
538026
538323
538639
538958
539278
539589
539898
540198
540497
540812
541136
541454
541762
542068
542380
542680
543002
543323
543641
543948
544254
544548
544842
545157
545483
545797
546102
546405
546695
546985
547308
547625
547936
548238
548544
548841
549132
549446
549766
550071
550371
550676
550972
551263
551591
551912
552230
552536
552849
553146
553433
553745
554058
554370
554677
554977
555258
555545
555849
556153
556456
556749
557042
557328
557620
557913
558215
558525
558826
559133
559433
559727
560023
560339
560658
560962
561265
561561
561851
562133
562451
562763
563067
563358
563660
563953
564242
564549
564865
565177
565474
565770
566056
566333
566643
566952
567262
567555
567855
568145
568442
568734
569046
569356
569659
569964
570262
570552
570848
571159
571474
571775
572083
572383
572685
572977
573291
573599
573902
574194
574490
574783
575069
575381
575701
576010
576306
576606
576902
577190
577504
577819
578131
578429
578737
579033
579320
579630
579948
580267
580571
580875
581172
581464
581776
582091
582401
582696
583000
583292
583584
583884
584191
584503
584807
585109
585390
585690
585967
586264
586569
586869
587161
587443
587728
588009
588305
588599
588898
589182
589471
589750
590026
590303
590599
590895
591192
591479
591767
592050
592322
592627
592932
593232
593516
593807
594096
594377
594662
594964
595265
595550
595851
596141
596424
596710
597023
597338
597646
597946
598243
598536
598826
599144
599464
599776
600080
600376
600674
600962
601272
601584
601900
602199
602496
602783
603076
603391
603706
604022
604321
604626
604924
605211
605518
605829
606149
606450
606749
607043
607338
607648
607974
608287
608585
608896
609205
609502
609802
610123
610440
610748
611052
611340
611635
611947
612269
612590
612889
613195
613487
613785
614087
614396
614702
615001
615303
615600
615894
616190
616509
616830
617132
617441
617738
618038
618333
618649
618961
619265
619558
619858
620152
620440
620743
621052
621355
621646
621929
622214
622494
622786
623095
623395
623673
623961
624252
624532
624799
625090
625373
625658
625930
626205
626472
626736
627005
627297
627577
627861
628137
628417
628688
628963
629248
629533
629819
630095
630374
630642
630917
631174
631458
631734
632017
632311
632589
632861
633117
633401
633686
633966
634244
634514
634780
635049
635318
635571
635852
636130
636429
636703
636985
637259
637539
637812
638106
638402
638708
638994
639272
639570
639835
640144
640446
640750
641039
641322
641596
641897
642181
642486
642785
643069
643357
643640
643912
644188
644488
644781
645059
645346
645652
645938
646215
646502
646809
647117
647412
647709
647994
648280
648563
648854
649149
649442
649724
