188
471
786
1109
1412
1726
2029
2333
2623
2945
3263
3564
3871
4180
4478
4771
5087
5404
5714
6030
6328
6625
6919
7246
7563
7875
8181
8485
8789
9089
9407
9716
10029
10348
10656
10955
11258
11588
11918
12238
12561
12876
13182
13498
13830
14152
14465
14785
15086
15393
15705
16017
16345
16647
16959
17257
17551
17871
18195
18498
18806
19127
19434
19736
20053
20378
20703
21016
21330
21636
21935
22266
22598
22928
23238
23553
23861
24164
24485
24814
25128
25437
25751
26050
26353
26679
27015
27342
27662
27971
28287
28605
28938
29266
29572
29888
30198
30513
30819
31140
31483
31799
32115
32424
32727
33054
33385
33711
34012
34319
34632
34935
35254
35587
35911
36226
36545
36851
37153
37480
37810
38125
38417
38718
39018
39318
39648
39968
40281
40598
40914
41227
41532
41856
42186
42505
42830
43128
43428
43742
44071
44393
44699
45013
45326
45636
45951
46286
46617
46929
47242
47545
47844
48171
48501
48835
49133
49440
49758
50053
50376
50681
51001
51305
51618
51927
52222
52538
52871
53196
53507
53806
54090
54413
54743
55063
55382
55687
55999
56303
56588
56904
57220
57540
57852
58156
58457
58757
59080
59400
59709
60624
60922
61235
61552
61868
62176
62476
62769
63056
63371
63688
64010
64303
64602
64901
65201
65516
65826
66136
66434
66735
67032
67300
67611
67918
68221
68509
68795
69077
69355
69647
69959
70267
70562
70866
71165
71448
71739
72048
72359
72664
72967
73268
73563
73847
74163
74472
74780
75068
75369
75653
75941
76254
76568
76877
77177
77473
77755
78047
78349
78662
78970
79274
79583
79883
80188
80499
80813
81126
81432
81743
82046
82350
82653
82973
83300
83620
83937
84244
84547
84871
85202
85523
85833
86142
86452
86752
87072
87391
87722
88023
88336
88638
88935
89250
89575
89894
90198
90503
90802
91098
91414
91733
92047
92345
92665
92964
93257
93575
93893
94205
94511
94816
95108
95397
95717
96036
96349
96653
96949
97252
97551
97869
98187
98506
98814
99123
99416
99704
100016
100348
100672
100972
101275
101583
101884
102208
102528
102853
103146
103460
103761
104054
104370
104695
105003
105301
105603
105904
106202
106520
106840
107159
107468
107790
108097
108398
108706
109030
109350
109657
109962
110256
110546
110870
111193
111507
111808
112115
112421
112732
113044
113360
113692
114009
114322
114615
114916
115243
115568
115879
116190
116494
116801
117090
117410
117728
118042
118350
118658
118954
119254
119572
119896
120209
120518
120822
121114
121405
121732
122055
122362
122664
122975
123281
123569
123883
124204
124516
124821
125127
125416
125704
126031
126356
126673
126966
127277
127579
127879
128204
128523
128838
129153
129462
129761
130057
130383
130703
131019
131332
131641
131949
132261
132586
132905
133216
133528
133834
134142
134441
134761
135085
135392
135704
135997
136300
136604
136934
137266
137577
137892
138199
138497
138798
139115
139440
139742
140054
140354
140652
140953
141277
141586
141889
142199
142504
142806
143108
143431
143754
144065
144383
144688
144995
145306
145632
145963
146278
146580
146878
147181
147500
147824
148143
148452
148764
149059
149355
149676
149996
150331
150641
150813
150944
151264
151559
151881
152212
152536
152843
153156
153470
153770
154085
154410
154735
155048
155354
155656
155955
156277
156603
156922
157220
157524
157830
158137
158469
158792
159102
159430
159747
160052
160354
160683
161006
161318
161632
161928
162227
162525
162848
163173
163480
163797
164102
164408
164715
165040
165357
165667
165979
166287
166590
166900
167219
167549
167861
168170
168472
168787
169097
169406
169727
170039
170350
170658
170959
171264
171580
171908
172212
172515
172814
173107
173414
173740
174058
174361
174671
174977
175279
175578
175898
176221
176530
176851
177142
177433
177747
178069
178376
178672
178976
179271
179573
179871
180185
180502
180813
181129
181425
181722
182029
182354
182681
182994
183296
183599
183913
184224
184546
184866
185172
185483
185790
186083
186351
186702
187029
187326
187616
187903
188192
188485
188799
189105
189399
189705
190005
190306
190592
190927
191250
191559
191874
192189
192495
192803
193137
193467
193771
194079
194379
194693
195008
195327
195661
195979
196302
196610
196906
197229
197546
197867
198171
198310
198476
198764
199056
199368
199682
199982
200286
200584
200882
201176
201474
201783
202087
202387
202687
202976
203274
203561
203872
204186
204481
204787
205087
205383
205666
205971
206286
206594
206898
207204
207503
207788
208096
208411
208724
209020
209320
209618
209909
210218
210530
210842
211138
211443
211738
212026
212336
212654
212961
213263
213567
213854
214145
214449
214765
215082
215376
215681
215982
216274
216565
216876
217185
217491
217795
218089
218374
218663
218973
219282
219585
219881
220170
220453
220739
221045
221351
221655
221946
222249
222543
222832
223136
223452
223759
224053
224349
224647
224938
225241
225561
225877
226175
226487
226791
227098
227406
227728
228044
228351
228676
228975
229276
229598
229928
230243
230550
230865
231172
231469
231786
232108
232427
232728
233037
233330
233628
233948
234277
234606
234912
235137
235496
235804
236133
236455
236770
237074
237388
237690
237989
238307
238635
238962
239273
239581
239881
240183
240514
240835
241158
241466
241779
242078
242369
242685
243004
243332
243637
243933
244244
244545
244876
245192
245506
245820
246129
246432
246738
247060
247373
247683
248010
248321
248609
248909
249235
249564
249883
250198
250499
250795
251098
251426
251737
252046
252358
252664
252969
253255
253567
253886
254202
254517
254821
255128
255430
255763
256074
256382
256691
257001
257307
257608
257931
258252
258561
258875
259176
259467
259754
260080
260400
260703
261012
261319
261617
261928
262251
262575
262893
263216
263529
263835
264152
264472
264805
265123
265431
265728
266025
266331
266648
266964
267268
267572
267868
268168
268468
268787
269114
269426
269740
270038
270348
270668
271003
271329
271638
271941
272246
272538
272853
273159
273474
273783
274098
274389
274687
275013
275344
275665
275952
276261
276561
276847
277165
277489
277805
278107
278408
278711
279004
279316
279635
279956
280261
280561
280845
281146
281465
281785
282099
282408
282720
283032
283330
283641
283964
284297
284602
284901
285203
285503
285825
286150
286471
286764
287071
287379
287671
287977
288285
288608
288914
289215
289520
289826
290150
290488
290818
291128
291447
291759
292071
292406
292735
293053
293367
293684
293996
294297
294624
294947
295257
295576
295885
296186
296491
296821
297142
297446
297754
298048
298352
298647
298964
299265
299573
299888
300190
300486
300778
301092
301412
301717
302025
302327
302625
302916
303232
303545
303855
304150
304448
304743
305030
305338
305657
305975
306272
306575
306876
307163
307481
307794
308113
308417
308720
309024
309318
309628
309954
310281
310593
310892
311194
311480
311805
312122
312432
312722
313028
313324
313618
313927
314235
314535
314841
315147
315437
315730
316039
316355
316679
316973
317278
317576
317870
318172
318478
318790
319084
319384
319669
319956
320243
320553
320873
321174
321462
321765
322062
322353
322670
322975
323281
323575
323875
324155
324436
324740
325051
325348
325646
325945
326223
326518
326828
327144
327461
327756
328051
328347
328651
328955
329265
329574
329891
330204
330497
330795
331095
331407
331715
332015
332322
332608
332906
333196
333516
333826
334133
334444
334757
335069
335367
335687
336014
336325
336646
336955
337268
337566
337895
338223
338537
338844
339153
339453
339758
340078
340399
340703
341013
341309
341608
341894
342222
342539
342845
343153
343455
343745
344049
344369
344692
344998
345318
345616
345919
346219
346528
346835
347143
347445
347740
348035
348335
348647
348936
349237
349538
349833
350135
350400
350712
351022
351337
351635
351932
352227
352513
352834
353158
353475
353774
354080
354385
354681
354997
355318
355631
355937
356246
356548
356840
357162
357489
357816
358120
358426
358723
359016
359331
359646
359953
360254
360556
360848
361129
361438
361747
362063
362366
362671
362972
363271
363575
363896
364211
364515
364820
365120
365419
365717
366038
366368
366674
366983
367284
367589
367904
368232
368560
368867
369181
369495
369794
370113
370438
370758
371072
371381
371680
371976
372302
372622
372946
373252
373564
373868
374162
374489
374816
375138
375449
375763
376065
376353
376675
376993
377314
377622
377926
378224
378524
378848
379172
379487
379800
380106
380406
380710
381035
381356
381677
381992
382300
382607
382908
383235
383559
383867
384181
384489
384801
385108
385434
385765
386070
386391
386707
387018
387331
387651
387978
388295
388596
388901
389201
389522
389843
390161
390462
390772
391077
391373
391686
392011
392335
392646
392957
393258
393559
393889
394215
394538
394853
395170
395485
395794
396116
396439
396772
397091
397405
397714
398022
398350
398668
398979
399289
399589
399898
400208
400535
400859
401165
401485
401806
402116
402429
402769
403103
403419
403735
404038
404341
404673
405001
405329
405640
405963
406265
406559
406882
407206
407529
407840
408153
408453
408761
409088
409419
409740
410057
410368
410679
410988
411317
411634
411953
412272
412580
412876
413180
413511
413841
414152
414470
414780
415090
415390
415707
416030
416335
416652
416962
417262
417569
417893
418218
418526
418827
419134
419437
419756
420095
420429
420739
421062
421390
421706
422039
422376
422695
423012
423324
423631
423931
424258
424584
424895
425215
425524
425833
426140
426470
426803
427119
427447
427758
428068
428393
428730
429066
429395
429719
430040
430347
430680
431015
431344
431668
431990
432310
432625
432954
433293
433612
433934
434240
434548
434860
435189
435517
435824
436143
436451
436753
437075
437407
437735
438048
438359
438665
438962
439288
439618
439934
440241
440558
440869
441180
441508
441834
442156
442478
442791
443090
443392
443723
444055
444377
444703
445011
445325
445640
445965
446288
446596
446906
447204
447501
447804
448122
448451
448756
449059
449356
449661
449955
450273
450585
450886
451191
451494
451793
452091
452409
452732
453046
453370
453673
453970
454287
454620
454938
455249
455563
455860
456166
456471
456791
457109
457422
457731
458035
458319
458629
458942
459260
459558
459853
460142
460436
460732
461046
461354
461648
461950
462250
462548
462838
463146
463457
463764
464064
464352
464632
464911
465218
465529
465833
466128
466429
466731
467021
467334
467647
467967
468270
468574
468867
469153
469462
469785
470100
470396
470698
470990
471280
471584
471897
472207
472505
472814
473113
473403
473692
474006
474318
474615
474913
475197
475485
475776
476085
476392
476694
476987
477280
477571
477856
478162
478473
478791
479086
479395
479691
479988
480310
480631
480946
481252
481560
481868
482158
482464
482779
483090
483399
483696
483989
484277
484593
484918
485239
485537
485844
486132
486426
486742
487057
487366
487665
487973
488273
488569
488868
489183
489499
489798
490083
490372
490650
490933
491232
491521
491811
492094
492375
492650
492921
493213
493501
493798
494081
494375
494657
494944
495225
495538
495859
496155
496453
496745
497038
497312
497598
497898
498191
498473
498750
499025
499297
499577
499866
500170
500446
500724
501012
501277
501556
501848
502140
502429
502708
502996
503278
503554
503817
504111
504404
504701
504984
505268
505542
505818
506107
506407
506705
506981
507272
507548
507827
508101
508387
508676
508971
509255
509539
509810
510087
510364
510663
510962
511262
511546
511826
512111
512390
512687
512978
513280
513562
513857
514147
514431
514714
515022
515328
515620
515914
516209
516497
516786
517103
517414
517723
518020
518320
518612
518894
519200
519505
519817
520118
520414
520702
520986
521292
521592
521885
522166
522457
522738
523019
523296
523590
523886
524202
524481
524777
525062
525339
525635
525944
526256
526546
526834
527133
527431
527728
528045
528364
528665
528977
529278
529573
529863
530180
530500
530801
531096
531390
531688
531988
532307
532622
532917
533228
533532
533829
534119
534437
534737
535044
535351
535650
535935
536222
536527
536832
537137
537433
537717
538014
538311
538624
538942
539265
539576
539887
540186
540483
540795
541119
541443
541750
542056
542366
542665
542987
543308
543628
543930
544241
544534
544827
545142
545467
545785
546089
546393
546681
546969
547292
547611
547926
548224
548529
548828
549119
549431
549752
550055
550355
550665
550959
551249
551575
551898
552220
552523
552840
553132
553417
553729
554045
554360
554667
554969
555247
555537
555835
556139
556442
556735
557031
557317
557609
557900
558201
558506
558811
559117
559417
559712
560006
560321
560639
560953
561254
561549
561835
562116
562433
562745
563052
563340
563643
563938
564225
564530
564848
565160
565458
565756
566039
566326
566629
566934
567244
567540
567840
568129
568426
568716
569034
569338
569640
569947
570248
570539
570832
571141
571454
571761
572067
572367
572668
572961
573273
573583
573893
574175
574473
574769
575054
575363
575683
575996
576291
576591
576888
577174
577487
577803
578117
578414
578721
579020
579311
579614
579933
580251
580554
580862
581159
581456
581760
582078
582385
582680
582986
583280
583570
583868
584177
584485
584784
585096
585378
585673
585925
586251
586549
586858
587148
587428
587712
587995
588291
588588
588886
589167
589454
589736
590014
590287
590581
590882
591184
591467
591752
592040
592313
592612
592920
593213
593502
593792
594082
594366
594649
594951
595251
595534
595835
596130
596413
596693
597008
597324
597640
597932
598233
598520
598814
599130
599452
599765
600064
600366
600665
600951
601256
601568
601890
602189
602483
602768
603067
603380
603695
604009
604308
604612
604910
605202
605503
605812
606133
606434
606737
607029
607329
607633
607959
608271
608572
608886
609195
609488
609786
610106
610424
610733
611039
611332
611629
611932
612255
612576
612875
613181
613474
613775
614071
614385
614686
614983
615294
615594
615884
616176
616493
616816
617123
617431
617726
618027
618323
618639
618948
619260
619546
619845
620139
620424
620727
621037
621342
621631
621912
622195
622482
622770
623080
623379
623661
623955
624244
624523
624789
625080
625366
625646
625919
626196
626461
626728
626989
627284
627564
627854
628127
628408
628677
628958
629239
629528
629811
630084
630369
630635
630902
631159
631442
631739
632009
632298
632576
632856
633114
633380
633670
633956
634231
634499
634768
635037
635305
635559
635837
636119
636412
636688
636973
637248
637527
637802
638098
638397
638699
638980
639264
639557
639830
640129
640432
640739
641024
641315
641591
641889
642165
642471
642772
643057
643345
643626
643899
644172
644471
644766
645050
645327
645636
645923
646200
646487
646792
647099
647398
647693
647982
648265
648552
648839
649134
649428
649710
