131
390
651
900
1158
1403
1656
1899
2156
2400
2641
2891
3135
3386
3631
3879
4128
4377
4634
4881
5129
5372
5624
5873
6116
6369
6618
6869
7126
7384
7642
7897
8160
8413
8666
8916
9176
9433
9688
9949
10204
10452
10710
10970
11230
11474
11741
11985
12240
12498
12753
13006
13258
13521
13772
14022
14269
14517
14766
15010
15271
15518
15769
16025
16280
16537
16786
17041
17290
17542
17799
18059
18306
18556
18810
19058
19312
19559
19813
20064
20320
20583
20842
21098
21353
21610
21865
22117
22376
22622
22875
23125
23380
23626
23874
24130
24376
24634
24877
25130
25380
25635
25888
26135
26381
26627
26877
27125
27370
27620
27866
28116
28363
28618
28867
29118
29371
29621
29876
30120
30368
30617
30865
31115
31365
31608
31857
32106
32354
32603
32845
33091
33342
33592
33841
34090
34331
34576
34824
35069
35311
35553
35796
36042
36290
36544
36794
37042
37292
37541
37793
38038
38293
38545
38796
39053
39305
39556
39800
40056
40307
40558
40812
41066
41319
41567
41827
42072
42323
42578
42830
43083
43328
43584
43827
44078
44327
44572
44822
45065
45327
45577
45827
46077
46330
46579
46830
47093
47346
47600
47858
48118
48370
48618
48878
49132
49387
49649
49903
50155
50407
50673
50928
51189
51447
51704
51957
52215
52475
52731
52988
53248
53503
53756
53998
54249
54498
54746
55002
55251
55500
55749
56004
56254
56505
56757
57010
57263
57513
57769
58018
58272
58525
58776
59032
59280
59536
59786
60040
60293
60547
60795
61043
61298
61546
61798
62043
62295
62548
62801
63059
63306
63561
63816
64080
64340
64593
64852
65109
65363
65621
65879
66136
66389
66653
66912
67168
67431
67688
67951
68211
68474
68731
68990
69257
69519
69778
70035
70292
70545
70804
71062
71320
71565
71827
72077
72334
72583
72845
73100
73352
73613
73862
74113
74362
74619
74867
75108
75361
75609
75858
76110
76367
76623
76880
77146
77402
77655
77907
78161
78419
78670
78935
79184
79431
79691
79944
80197
80444
80702
80955
81215
81479
81736
81985
82240
82502
82757
83006
83265
83518
83774
84028
84291
84541
84796
85064
85325
85591
85846
86108
86360
86623
86891
87153
87414
87680
87939
88200
88455
88714
88972
89227
89490
89743
90001
90256
90518
90770
91023
91276
91525
91773
92027
92275
92520
92766
93016
93266
93517
93759
94010
94250
94497
94737
94983
95225
95467
95716
95958
96208
96445
96695
96941
97189
97433
97680
97919
98164
98411
98655
98903
99145
99395
99651
99904
100160
100407
100659
100908
101163
101421
101668
101928
102176
102434
102682
102943
103193
103442
103699
103953
104205
104448
104698
104938
105184
105436
105678
105926
106168
106418
106666
106906
107151
107396
107642
107881
108136
108375
108618
108866
109116
109364
109601
109850
110095
110338
110586
110839
111086
111331
111593
111844
112099
112346
112604
112856
113113
113372
113627
113878
114140
114396
114656
114905
115165
115414
115667
115928
116184
116436
116690
116952
117209
117458
117717
117970
118224
118487
118753
119007
119268
119534
119798
120051
120312
120562
120816
121072
121333
121593
121847
122105
122360
122613
122855
123111
123355
123604
123857
124110
124358
124611
124867
125118
125369
125617
125864
126114
126359
126611
126852
127098
127346
127599
127850
128103
128359
128601
128857
129102
129358
129604
129853
130107
130357
130611
130855
131108
131358
131609
131867
132119
132380
132629
132887
133137
133385
133636
133880
134132
134378
134629
134876
135120
135372
135621
135872
136116
136366
136616
136864
137120
137369
137623
137871
138125
138375
138625
138870
139119
139369
139617
139865
140116
140359
140607
140862
141111
141359
141611
141860
142108
142357
142610
142853
143096
143348
143595
143847
144087
144342
144595
144846
145103
145354
145610
145862
146129
146385
146643
146903
147163
147416
147674
147929
148182
148432
148696
148952
149207
149458
149717
149972
150231
150497
150755
151012
151278
151538
151796
152048
152306
152563
152820
153088
153344
153599
153860
154117
154375
154625
154886
155140
155394
155655
155912
156169
156424
156686
156935
157185
157435
157689
157931
158185
158434
158681
158928
159184
159434
159688
159927
160183
160427
160674
160927
161179
161430
161682
161939
162189
162444
162695
162949
163205
163463
163720
163973
164226
164488
164744
165005
165252
165511
165758
166013
166270
166521
166777
167028
167291
167540
167795
168044
168296
168547
168802
169060
169314
169565
169820
170076
170334
170588
170845
171099
171357
171615
171871
172131
172391
172656
172919
173174
173436
173690
173951
174205
174465
174718
174971
175231
175489
175743
175997
176254
176508
176764
177026
177280
177536
177799
178057
178314
178564
178820
179076
179330
179590
179843
180098
180357
180619
180879
181130
181387
181642
181902
182165
182426
182683
182940
183205
183467
183722
183987
184244
184505
184773
185042
185309
185576
185845
186115
186370
186641
186905
187166
187432
187691
187949
188208
188475
188738
188994
189263
189523
189780
190046
190308
190569
190829
191098
191358
191608
191871
192126
192385
192646
192905
193155
193414
193672
193928
194177
194427
194679
194928
195175
195425
195673
195910
196159
196409
196659
196900
197156
197395
197645
197897
198154
198402
198649
198906
199155
199408
199651
199900
200148
200395
200647
200900
201148
201402
201663
201917
202171
202424
202673
202923
203172
203426
203673
203919
204168
204417
204666
204914
205165
205413
205666
205918
206171
206418
206667
206916
207165
207417
207654
207903
208148
208393
208645
208890
209141
209386
209642
209892
210144
210395
210645
210893
211144
211395
211641
211884
212129
212376
212623
212863
213110
213351
213596
213843
214091
214337
214581
214832
215085
215336
215578
215827
216074
216322
216571
216820
217069
217317
217572
217820
218069
218316
218561
218812
219062
219321
219572
219823
220085
220339
220593
220835
221093
221337
221587
221839
222094
222344
222597
222857
223111
223361
223617
223873
224124
224378
224635
224889
225136
225401
225649
225902
226148
226401
226651
226899
227158
227407
227654
227908
228166
228421
228669
228930
229182
229436
229695
229952
230200
230451
230713
230967
231218
231472
231725
231975
232227
232485
232732
232979
233234
233486
233739
233983
234239
234485
234729
234980
235229
235475
235721
235979
236224
236477
236727
236982
237227
237481
237730
237979
238228
238476
238733
238979
239228
239478
239725
239970
240221
240478
240723
240976
241231
241484
241740
241988
242243
242490
242739
242987
243232
243476
243719
243973
244221
244472
244718
244967
245221
245475
245736
245985
246234
246488
246739
246991
247241
247493
247737
247985
248232
248483
248732
248982
249236
249493
249752
250009
250267
250526
250782
251039
251290
251543
251797
252054
252315
252571
252841
253107
253382
253610
253955
254247
254549
254835
255101
255372
255635
255896
256156
256410
256668
256913
257177
257428
257680
257931
258185
258439
258690
258945
259193
259441
259689
259940
260190
260429
260680
260925
261175
261426
261676
261922
262167
262425
262676
262927
263176
263432
263672
263923
264181
264433
264676
264924
265173
265417
265655
265900
266141
266386
266631
266887
267134
267375
267632
267878
268128
268370
268624
268878
269128
269384
269640
269890
270141
270401
270653
270901
271156
271402
271648
271895
272145
272389
272634
272889
273141
273385
273626
273877
274115
274359
274618
274856
275103
275351
275604
275852
276094
276341
276589
276832
277074
277323
277573
277817
278058
278313
278499
278792
279035
279289
279529
279794
279997
280296
280549
280805
281068
281324
281578
281834
282082
282333
282586
282837
283086
283331
283593
283840
284097
284346
284601
284851
285109
285367
285611
285862
286108
286357
286607
286851
287100
287343
287592
287838
288088
288335
288580
288832
289080
289328
289568
289814
290057
290299
290543
290788
291029
291245
291492
291746
292234
292456
292695
292953
293219
293444
293688
293936
294194
294434
294678
294917
295159
295400
295639
295882
296120
296374
296579
296838
297079
297316
297551
297791
298029
298267
298512
298752
298994
299227
299475
299713
299950
300191
300436
300680
300920
301171
301408
301650
301894
302144
302385
302625
302867
303107
303347
303587
303828
304067
304304
304544
304785
305028
305269
305510
305757
306004
306246
306495
306739
306976
307224
307472
307716
307952
308200
308441
308684
308931
309178
309421
309661
309911
310157
310409
310649
310899
311141
311385
311635
311886
312129
312375
312631
312880
313122
313366
313615
313861
314109
314363
314612
314861
315105
315358
315605
315849
316110
316341
316589
316836
317089
317336
317588
317845
318099
318352
318601
318859
319113
319371
319633
319891
320145
320400
320661
320915
321167
321426
321680
321939
322192
322452
322701
322954
323213
323469
323727
323978
324233
324486
324742
324999
325250
325501
325759
326010
326269
326514
326773
327023
327284
327543
327805
328062
328322
328577
328838
329087
329342
329589
329843
330100
330358
330614
330867
331130
331387
331640
331893
332143
332398
332656
332913
333166
333423
333680
333934
334192
334444
334700
334959
335215
335476
335731
335984
336239
336496
336754
337003
337260
337515
337772
338029
338290
338541
338789
339046
339301
339547
339800
340048
340304
340560
340814
341067
341316
341569
341820
342078
342322
342576
342826
343079
343336
343590
343839
344088
344347
344600
344851
345109
345364
345617
345874
346132
346383
346632
346891
347145
347401
347646
347905
348158
348407
348664
348916
349166
349417
349674
349925
350173
350426
350675
350925
351177
351435
351682
351931
352192
352440
352697
352949
353213
353472
353732
354001
354260
354525
354792
355059
355323
355579
355844
356099
356359
356625
356885
357145
357406
357675
357937
358195
358459
358713
358977
359239
359495
359747
360001
360258
360506
360754
361004
361253
361501
361757
362015
362270
362524
362790
363045
363308
363557
363814
364060
364317
364573
364814
365063
365317
365567
365818
366062
366319
366568
366820
367074
367326
367576
367826
368084
368331
368585
368834
369087
369343
369603
369863
370120
370378
370648
370904
371164
371418
371670
371929
372184
372443
372694
372946
373200
373456
373716
373965
374226
374487
374748
375017
375277
375541
375806
376067
376338
376595
376858
377119
377379
377642
377900
378160
378416
378678
378934
379190
379445
379702
379954
380208
380461
380714
380962
381223
381471
381720
381969
382219
382470
382717
382977
383228
383477
383731
383987
384244
384492
384746
384998
385253
385508
385768
386021
386273
386536
386793
387049
387299
387554
387809
388060
388322
388574
388821
389079
389333
389590
389834
390090
390342
390592
390848
391107
391358
391611
391874
392130
392385
392648
392906
393162
393420
393682
393932
394186
394449
394700
394957
395205
395461
395714
395966
396226
396482
396732
396989
397250
397508
397752
398012
398261
398513
398766
399021
399271
399522
399787
400040
400293
400550
400804
401062
401326
401595
401853
402113
402389
402647
402912
403172
403427
403687
403949
404217
404475
404736
405007
405265
405529
405791
406053
406309
406575
406838
407095
407356
407621
407883
408140
408406
408662
408923
409189
409453
409718
409980
410251
410510
410770
411031
411285
411544
411805
412066
412323
412580
412843
413101
413359
413614
413872
414133
414397
414662
414920
415180
415444
415703
415961
416216
416470
416728
416987
417248
417504
417760
418020
418283
418548
418804
419068
419327
419589
419856
420116
420371
420615
420889
421145
421399
421658
421917
422178
422439
422703
422964
423220
423485
423747
424003
424262
424518
424777
425036
425304
425562
425823
426089
426348
426611
426869
427136
427396
427659
427927
428187
428447
428712
428972
429231
429489
429751
430013
430277
430547
430808
431066
431333
431597
431859
432118
432381
432641
432903
433168
433427
433681
433950
434214
434478
434742
435008
435273
435541
435814
436076
436334
436602
436866
437127
437390
437653
437913
438174
438440
438699
438954
439223
439484
439747
440007
440268
440528
440785
441052
441309
441568
441831
442092
442350
442607
442871
443129
443393
443664
443921
444181
444451
444712
444974
445229
445490
445748
446009
446273
446528
446781
447046
447301
447562
447817
448078
448338
448600
448868
449124
449382
449646
449909
450172
450426
450692
450952
451216
451483
451745
452011
452284
452551
452819
453080
453348
453609
453871
454134
454389
454648
454909
455171
455427
455681
455941
456197
456459
456724
456985
457246
457508
457771
458031
458284
458545
458804
459063
459327
459586
459843
460099
460366
460621
460880
461134
461393
461651
461916
462175
462429
462686
462948
463209
463465
463722
463981
464240
464498
464762
465020
465277
465542
465805
466074
466327
466591
466852
467116
467382
467641
467899
468157
468420
468681
468933
469195
469454
469714
469981
470246
470510
470777
471045
471309
471568
471835
472098
472362
472630
472897
473165
473436
473704
473971
474235
474506
474776
475047
475324
475592
475854
476127
476393
476655
476920
477182
477443
477707
477972
478234
478495
478768
479038
479300
479568
479835
480096
480360
480625
480884
481141
481410
481672
481928
482188
482447
482702
482965
483230
483494
483748
484014
484272
484527
484788
485044
485303
485566
485832
486088
486346
486617
486881
487144
487411
487676
487936
488201
488464
488720
488980
489246
489506
489756
490013
490265
490521
490778
491044
491298
491559
491828
492089
492349
492601
492864
493119
493383
493648
493905
494162
494429
494693
494960
495220
495488
495749
496017
496288
496550
496812
497076
497340
497600
497856
498121
498374
498632
498893
499154
499411
499676
499939
500205
500459
500725
500983
501242
501507
501770
502034
502297
502563
502827
503086
503353
503612
503872
504141
504403
504667
504931
505198
505466
505725
505996
506257
506524
506789
507054
507320
507585
507854
508118
508382
508648
508915
509182
509452
509718
509983
510251
510520
510791
511050
511316
511578
511841
512109
512372
512635
512901
513164
513432
513691
513953
514212
514473
514736
514995
515257
515519
515781
516043
516296
516556
516814
517074
517339
517602
517862
518128
518394
518659
518919
519180
519443
519700
519965
520229
520485
520750
521007
521272
521523
521786
522043
522303
522567
522827
523087
523348
523614
523876
524129
524393
524655
524918
525189
525455
525719
525986
526260
526531
526792
527065
527330
527595
527865
528133
528392
528659
528925
529188
529446
529710
529972
530231
530502
530764
531026
531297
531565
531834
532092
532362
532626
532890
533159
533424
533686
533957
534227
534492
534754
535028
535294
535559
535835
536096
536360
536630
536891
537155
537411
537675
537933
538196
538463
538720
538983
539254
539518
539786
540048
540315
540578
540843
541115
541376
541638
541913
542182
542452
542720
542987
543256
543532
543813
544076
544343
544618
544884
545151
545423
545682
545946
546214
546476
546743
547002
547276
547541
547805
548077
548337
548603
548872
549139
549403
549675
549943
550208
550470
550736
551000
551269
551542
551806
552075
552343
552612
552879
553133
553399
553655
553919
554185
554441
554700
554968
555233
555499
555757
556024
556286
556555
556824
557087
557351
557616
557882
558151
558409
558671
558930
559194
559464
559724
559985
560253
560516
560783
561042
561304
561569
561830
562095
562353
562615
562878
563139
563400
563655
563917
564177
564439
564701
564960
565216
565481
565739
566001
566250
566512
566771
567029
567288
567544
567801
568057
568323
568582
568835
569094
569354
569612
569877
570138
570397
570652
570918
571180
571437
571696
571951
572209
572465
572729
572984
573238
573499
573757
574017
574273
574534
574787
575048
575312
575576
575830
576094
576353
576615
576868
577130
577388
577645
577911
578164
578421
578678
578941
579198
579451
579710
579968
580222
580486
580743
580999
581259
581522
581785
582039
582306
582565
582827
583093
583356
583617
583880
584147
584406
584661
584922
585179
585432
585695
585951
586204
586463
586727
586990
587243
587510
587765
588027
588294
588558
588817
589079
589347
589611
589868
590136
590394
590653
590920
591183
591444
591707
591973
592229
592484
592745
592998
593253
593515
593772
594029
594289
594553
594816
595069
595336
595592
595856
596128
596389
596652
596912
597182
597442
597697
597959
598214
598478
598742
599004
599263
599526
599799
600060
600320
600582
600838
601102
601366
601627
601882
602139
602405
602666
602925
603184
603443
603702
603969
604231
604491
604749
605018
605277
605535
605794
606047
606307
606565
606826
607080
607336
607599
607859
608119
608374
608634
608892
609156
609415
609673
609928
610189
610445
610702
610947
611204
611457
611718
611978
612236
612499
612757
613022
613284
613539
613797
614058
614317
614579
614838
615096
615351
615619
615878
616136
616397
616653
616918
617178
617446
617703
617960
618227
618487
618748
619006
619269
619528
619792
620060
620323
620586
620860
621130
621394
621665
621929
622194
622462
622729
622994
623257
623528
623797
624053
624323
624586
624847
625117
625378
625641
625903
626172
626436
626686
626953
627208
627470
627728
627987
628240
628500
628763
629020
629274
629537
629801
630059
630327
630588
630848
631110
631377
631644
631898
632164
632425
632683
632949
633209
633470
633731
633996
634258
634513
634781
635041
635301
635568
635831
636094
636354
636621
636882
637138
637406
637666
637927
638192
638458
638718
638980
639247
639506
639762
640026
640283
640540
640803
641062
641316
641570
641838
642095
642349
642609
642865
643125
643385
643650
643907
644165
644437
644695
644954
645210
645469
645725
645986
646250
646505
646762
647028
647286
647549
647810
648070
648329
648592
648858
649116
649371
649636
649912
