123
381
644
892
1148
1392
1647
1890
2146
2391
2629
2879
3126
3376
3621
3869
4118
4368
4624
4871
5119
5360
5616
5864
6108
6360
6609
6862
7117
7377
7633
7886
8149
8404
8657
8907
9168
9423
9676
9939
10193
10444
10701
10961
11219
11464
11731
11976
12231
12490
12744
12998
13249
13512
13762
14013
14257
14504
14755
14999
15259
15508
15758
16013
16268
16525
16777
17032
17281
17534
17790
18049
18294
18545
18799
19049
19303
19551
19806
20056
20313
20575
20832
21087
21344
21600
21857
22108
22366
22610
22863
23114
23371
23618
23866
24123
24369
24624
24871
25123
25372
25625
25877
26124
26369
26616
26867
27114
27361
27609
27855
28105
28354
28608
28857
29107
29359
29608
29864
30109
30359
30606
30856
31105
31353
31597
31845
32095
32343
32593
32836
33082
33333
33580
33828
34077
34321
34565
34815
35059
35302
35545
35788
36034
36281
36534
36783
37030
37279
37531
37784
38030
38284
38537
38785
39041
39294
39545
39790
40048
40299
40549
40803
41056
41309
41555
41816
42062
42312
42569
42821
43074
43318
43572
43814
44067
44316
44563
44812
45057
45317
45567
45817
46066
46320
46570
46823
47085
47338
47589
47848
48108
48362
48610
48869
49122
49376
49638
49894
50145
50398
50664
50919
51177
51435
51693
51948
52205
52467
52722
52977
53236
53492
53745
53987
54240
54487
54736
54992
55241
55490
55740
55994
56243
56496
56747
56999
57251
57502
57760
58009
58262
58516
58768
59023
59271
59527
59779
60030
60282
60536
60785
61033
61289
61537
61789
62034
62285
62539
62790
63047
63296
63551
63806
64070
64329
64582
64840
65099
65353
65611
65869
66124
66378
66643
66901
67158
67420
67676
67940
68200
68464
68722
68980
69248
69509
69770
70025
70283
70537
70794
71054
71308
71554
71817
72068
72325
72575
72834
73089
73341
73602
73852
74104
74354
74608
74856
75096
75351
75599
75848
76101
76359
76615
76869
77134
77391
77646
77897
78153
78409
78661
78924
79173
79420
79680
79934
80187
80434
80693
80947
81205
81467
81726
81975
82232
82493
82749
82999
83257
83509
83764
84019
84282
84532
84789
85055
85317
85579
85835
86097
86351
86614
86882
87145
87402
87669
87929
88190
88444
88705
88961
89216
89481
89734
89993
90247
90509
90761
91014
91266
91516
91765
92016
92263
92510
92756
93008
93257
93508
93750
94000
94240
94488
94731
94975
95219
95461
95710
95953
96203
96439
96688
96932
97178
97421
97669
97908
98154
98402
98648
98896
99139
99387
99642
99894
100149
100396
100649
100897
101153
101410
101660
101917
102166
102424
102672
102933
103184
103433
103691
103944
104196
104436
104686
104929
105174
105427
105670
105917
106159
106409
106656
106897
107142
107386
107632
107871
108125
108367
108608
108856
109107
109352
109590
109840
110084
110328
110573
110828
111076
111321
111583
111834
112090
112337
112596
112848
113105
113364
113619
113871
114130
114389
114647
114896
115154
115403
115658
115919
116175
116427
116678
116941
117199
117451
117708
117962
118216
118479
118744
118999
119258
119525
119787
120040
120301
120552
120809
121065
121327
121583
121838
122096
122351
122602
122844
123101
123345
123594
123847
124101
124348
124601
124858
125108
125361
125607
125854
126102
126349
126602
126843
127091
127339
127592
127842
128093
128348
128590
128845
129094
129351
129597
129846
130100
130351
130603
130851
131102
131354
131604
131861
132112
132368
132619
132875
133125
133374
133626
133869
134121
134367
134618
134865
135110
135361
135610
135861
136107
136356
136606
136856
137109
137358
137612
137862
138115
138365
138616
138860
139111
139359
139606
139853
140105
140350
140597
140853
141101
141349
141602
141850
142096
142345
142599
142845
143086
143338
143585
143837
144078
144333
144584
144834
145092
145345
145600
145852
146119
146377
146634
146892
147151
147404
147664
147919
148173
148422
148686
148941
149197
149449
149708
149963
150222
150488
150747
151003
151267
151528
151787
152039
152298
152554
152812
153078
153334
153590
153849
154109
154365
154615
154876
155130
155385
155646
155902
156159
156413
156675
156925
157174
157426
157678
157920
158173
158423
158672
158918
159176
159426
159677
159915
160172
160417
160665
160918
161170
161420
161670
161928
162180
162435
162685
162939
163194
163452
163710
163963
164217
164478
164736
164993
165241
165501
165747
166003
166261
166513
166768
167019
167280
167530
167786
168035
168287
168538
168794
169051
169304
169556
169810
170066
170324
170578
170834
171088
171346
171605
171860
172121
172378
172646
172908
173164
173424
173679
173940
174195
174455
174707
174962
175221
175480
175733
175985
176242
176497
176754
177016
177271
177527
177789
178048
178305
178555
178811
179066
179320
179579
179834
180088
180347
180608
180867
181119
181377
181633
181891
182153
182414
182674
182929
183195
183456
183710
183976
184235
184496
184764
185033
185299
185565
185836
186105
186362
186632
186896
187156
187422
187681
187940
188199
188466
188729
188985
189252
189513
189771
190037
190299
190560
190820
191089
191348
191600
191862
192117
192376
192637
192894
193144
193404
193662
193918
194167
194417
194671
194918
195164
195415
195662
195899
196148
196400
196650
196889
197145
197386
197636
197889
198144
198392
198639
198896
199146
199398
199641
199887
200137
200385
200638
200891
201138
201392
201652
201906
202158
202412
202663
202913
203163
203415
203663
203909
204158
204410
204657
204906
205158
205406
205655
205908
206161
206408
206658
206908
207156
207406
207643
207894
208140
208385
208639
208883
209133
209381
209635
209887
210137
210385
210633
210881
211134
211384
211629
211872
212119
212368
212613
212853
213099
213341
213586
213834
214081
214328
214573
214823
215073
215324
215567
215818
216063
216312
216562
216812
217060
217307
217560
217809
218059
218307
218552
218803
219053
219312
219564
219814
220074
220328
220584
220825
221082
221329
221579
221831
222086
222338
222589
222849
223104
223354
223610
223863
224114
224370
224625
224878
225126
225390
225639
225892
226138
226392
226641
226888
227148
227397
227644
227899
228156
228414
228660
228921
229172
229425
229685
229942
230191
230441
230704
230958
231210
231461
231716
231964
232218
232474
232723
232970
233224
233478
233728
233974
234228
234476
234720
234971
235223
235467
235715
235972
236218
236471
236717
236972
237217
237471
237722
237970
238219
238468
238725
238971
239216
239466
239715
239964
240214
240471
240717
240969
241225
241478
241734
241978
242235
242479
242726
242977
243223
243467
243711
243964
244212
244462
244706
244956
245209
245466
245724
245975
246224
246478
246736
246983
247232
247481
247730
247976
248226
248478
248725
248976
249232
249489
249745
250000
250257
250517
250772
251028
251279
251533
251786
252044
252304
252560
252830
253097
253370
253598
253944
254236
254538
254823
255092
255361
255625
255885
256144
256398
256657
256904
257169
257420
257676
257923
258177
258427
258677
258936
259183
259432
259680
259931
260181
260421
260671
260917
261164
261414
261666
261918
262160
262420
262671
262923
263169
263422
263672
263918
264173
264425
264667
264912
265163
265406
265645
265893
266133
266377
266624
266878
267123
267365
267623
267870
268119
268362
268616
268869
269117
269373
269631
269880
270132
270392
270645
270891
271145
271391
271640
271886
272138
272382
272628
272879
273130
273373
273614
273867
274106
274352
274602
274852
275095
275344
275598
275847
276092
276336
276584
276825
277070
277317
277565
277806
278046
278304
278494
278787
279028
279279
279524
279779
280035
280287
280543
280797
281060
281316
281567
281823
282071
282322
282574
282824
283075
283324
283585
283834
284091
284339
284596
284847
285099
285356
285600
285850
286098
286348
286596
286841
287089
287333
287581
287830
288080
288327
288573
288824
289073
289321
289559
289806
290047
290289
290533
290776
291014
291253
291497
291738
291981
292218
292460
292704
292948
293196
293440
293684
293927
294179
294425
294669
294910
295153
295391
295630
295873
296112
296346
296584
296826
297068
297307
297540
297779
298020
298258
298502
298746
298986
299207
299466
299705
299947
300188
300427
300668
300908
301160
301400
301641
301885
302134
302375
302613
302854
303095
303335
303575
303818
304056
304294
304535
304780
305023
305261
305503
305748
305994
306236
306484
306730
306969
307214
307465
307708
307944
308194
308435
308677
308924
309172
309413
309655
309903
310151
310400
310635
310887
311132
311376
311625
311876
312117
312366
312619
312868
313115
313357
313607
313851
314099
314352
314599
314848
315093
315348
315593
315837
316087
316333
316577
316826
317079
317327
317578
317834
318088
318340
318592
318849
319104
319360
319621
319878
320133
320390
320653
320907
321162
321418
321671
321929
322181
322441
322690
322943
323204
323459
323717
323968
324224
324477
324733
324991
325242
325492
325749
326000
326259
326506
326763
327014
327275
327536
327796
328053
328310
328567
328828
329077
329333
329581
329835
330092
330350
330606
330860
331123
331376
331630
331883
332135
332389
332646
332903
333157
333413
333671
333926
334183
334435
334692
334950
335206
335465
335720
335973
336231
336487
336746
336994
337253
337507
337764
338021
338282
338530
338778
339037
339293
339539
339790
340041
340294
340548
340804
341058
341306
341561
341813
342070
342315
342569
342819
343071
343328
343580
343829
344080
344339
344591
344843
345100
345354
345607
345863
346124
346376
346626
346885
347139
347393
347641
347898
348150
348399
348656
348908
349157
349409
349665
349917
350164
350416
350667
350917
351170
351426
351675
351923
352183
352433
352690
352940
353205
353464
353726
353993
354254
354516
354783
355051
355314
355570
355836
356093
356352
356618
356878
357136
357398
357669
357930
358186
358450
358705
358967
359230
359484
359736
359992
360249
360496
360745
360996
361245
361494
361750
362009
362264
362518
362782
363036
363297
363547
363804
364052
364308
364562
364805
365053
365306
365557
365809
366055
366312
366560
366811
367065
367316
367566
367815
368076
368322
368578
368827
369080
369336
369596
369856
370112
370370
370638
370895
371155
371410
371663
371919
372173
372434
372686
372938
373191
373446
373707
373955
374216
374477
374739
375006
375267
375533
375797
376062
376329
376586
376848
377109
377370
377632
377890
378150
378407
378668
378925
379180
379434
379691
379944
380199
380454
380705
380955
381213
381461
381711
381958
382210
382460
382709
382966
383218
383468
383721
383979
384235
384482
384735
384989
385245
385500
385760
386013
386264
386529
386784
387038
387288
387545
387800
388052
388312
388564
388811
389069
389324
389581
389826
390085
390333
390583
390840
391097
391349
391600
391866
392123
392379
392640
392897
393152
393410
393672
393925
394177
394438
394692
394949
395197
395452
395703
395960
396219
396473
396722
396982
397241
397497
397744
398003
398252
398503
398756
399013
399263
399512
399778
400029
400283
400541
400795
401052
401317
401586
401844
402106
402378
402638
402902
403162
403417
403678
403940
404207
404465
404727
404997
405257
405519
405781
406042
406298
406566
406829
407087
407347
407613
407872
408131
408397
408653
408914
409179
409444
409708
409970
410241
410500
410761
411022
411277
411534
411796
412058
412314
412571
412834
413092
413350
413606
413863
414124
414388
414653
414910
415170
415435
415695
415953
416207
416462
416719
416977
417238
417496
417751
418011
418275
418539
418796
419059
419319
419582
419845
420105
420363
420620
420878
421137
421390
421651
421909
422168
422430
422695
422956
423211
423478
423737
423994
424253
424510
424770
425028
425294
425553
425813
426079
426339
426602
426862
427128
427388
427650
427916
428177
428438
428702
428964
429223
429481
429744
430005
430268
430537
430798
431056
431325
431588
431850
432109
432371
432630
432893
433158
433418
433672
433942
434204
434469
434733
434999
435265
435530
435802
436065
436325
436592
436856
437118
437382
437645
437903
438163
438430
438690
438944
439215
439474
439736
439996
440259
440518
440776
441044
441299
441558
441821
442084
442342
442598
442861
443121
443385
443653
443911
444172
444442
444704
444964
445221
445481
445739
446000
446263
446518
446772
447037
447293
447553
447808
448070
448328
448590
448859
449116
449374
449638
449900
450161
450417
450683
450941
451205
451475
451738
452003
452273
452540
452810
453072
453340
453600
453859
454124
454381
454639
454900
455160
455417
455671
455933
456189
456451
456716
456976
457235
457496
457761
458022
458275
458538
458794
459055
459317
459575
459833
460091
460357
460613
460871
461126
461385
461643
461904
462165
462420
462678
462941
463200
463459
463713
463970
464230
464489
464755
465011
465270
465534
465796
466065
466319
466583
466843
467106
467371
467632
467891
468149
468411
468671
468924
469186
469446
469705
469972
470237
470500
470766
471034
471301
471558
471826
472089
472353
472621
472889
473155
473425
473696
473963
474226
474497
474768
475038
475314
475581
475844
476119
476384
476647
476910
477171
477432
477698
477964
478226
478485
478759
479029
479290
479559
479823
480085
480351
480616
480875
481132
481401
481661
481917
482180
482437
482694
482955
483221
483483
483737
484004
484262
484518
484778
485036
485294
485555
485821
486078
486337
486608
486871
487135
487400
487666
487925
488191
488456
488712
488971
489238
489495
489745
490002
490256
490513
490768
491035
491289
491550
491817
492077
492338
492592
492855
493109
493373
493637
493895
494153
494419
494683
494950
495210
495476
495739
496007
496278
496538
496799
497064
497331
497590
497848
498108
498362
498621
498884
499144
499402
499666
499930
500194
500448
500715
500974
501233
501499
501760
502024
502288
502554
502818
503077
503342
503602
503863
504132
504393
504657
504921
505189
505457
505716
505985
506246
506514
506780
507044
507309
507574
507844
508109
508373
508638
508905
509174
509443
509709
509974
510242
510511
510781
511039
511306
511568
511832
512100
512361
512624
512890
513155
513423
513679
513942
514202
514465
514727
514987
515247
515508
515771
516033
516286
516547
516806
517065
517330
517591
517852
518119
518384
518649
518907
519169
519433
519692
519957
520218
520475
520739
520999
521264
521512
521775
522033
522294
522558
522819
523078
523337
523605
523867
524122
524385
524647
524909
525180
525446
525710
525976
526251
526522
526781
527055
527319
527585
527857
528122
528382
528649
528915
529179
529435
529699
529962
530220
530491
530754
531017
531287
531554
531823
532082
532352
532616
532879
533148
533414
533677
533947
534217
534482
534744
535017
535283
535549
535824
536087
536350
536618
536881
537146
537401
537665
537922
538185
538454
538711
538974
539242
539510
539778
540039
540305
540567
540833
541106
541367
541629
541904
542171
542442
542710
542977
543247
543523
543801
544065
544332
544608
544875
545143
545412
545672
545936
546204
546467
546732
546992
547267
547532
547796
548066
548327
548593
548863
549130
549395
549665
549932
550198
550460
550726
550990
551259
551531
551795
552064
552333
552602
552868
553124
553389
553646
553910
554173
554432
554692
554958
555222
555488
555748
556015
556277
556545
556813
557076
557342
557607
557873
558140
558397
558661
558920
559185
559452
559713
559976
560243
560505
560771
561032
561296
561557
561818
562084
562343
562605
562867
563127
563389
563645
563906
564167
564426
564690
564949
565206
565470
565727
565991
566241
566504
566761
567017
567277
567534
567792
568049
568312
568571
568824
569084
569344
569603
569865
570126
570386
570642
570909
571170
571426
571684
571941
572200
572454
572720
572972
573227
573489
573749
574007
574263
574522
574779
575038
575302
575564
575819
576084
576343
576605
576857
577121
577379
577635
577899
578153
578410
578669
578932
579187
579441
579701
579959
580213
580477
580733
580990
581250
581514
581775
582028
582295
582555
582817
583083
583346
583605
583869
584138
584396
584650
584910
585168
585422
585684
585940
586193
586453
586717
586979
587233
587500
587757
588018
588284
588547
588806
589069
589338
589600
589857
590124
590383
590643
590910
591172
591432
591696
591963
592219
592472
592734
592989
593244
593505
593762
594019
594279
594544
594805
595059
595326
595583
595846
596116
596379
596643
596902
597173
597430
597687
597950
598206
598467
598730
598995
599253
599515
599786
600047
600309
600572
600829
601091
601354
601615
601871
602129
602396
602654
602912
603173
603432
603691
603957
604220
604481
604738
605006
605264
605523
605782
606037
606297
606553
606814
607069
607328
607589
607848
608109
608365
608625
608883
609145
609405
609663
609919
610179
610433
610691
610937
611196
611449
611708
611968
612226
612487
612746
613011
613274
613529
613788
614047
614306
614568
614827
615086
615341
615608
615867
616127
616387
616644
616907
617166
617434
617693
617948
618216
618477
618738
618997
619258
619517
619782
620050
620313
620576
620850
621118
621384
621654
621919
622184
622451
622718
622983
623246
623518
623786
624041
624312
624575
624838
625105
625366
625631
625894
626161
626424
626675
626942
627197
627458
627717
627976
628230
628489
628751
629011
629265
629529
629789
630047
630315
630577
630839
631099
631367
631633
631887
632154
632414
632672
632938
633200
633459
633719
633986
634248
634503
634770
635030
635292
635559
635821
636082
636343
636612
636872
637129
637394
637655
637916
638182
638448
638706
638969
639237
639497
639751
640014
640274
640530
640793
641050
641305
641560
641828
642083
642338
642598
642855
643113
643373
643640
643897
644156
644425
644684
644942
645199
645457
645713
645974
646239
646495
646750
647017
647277
647540
647798
648059
648320
648583
648848
649104
649361
649626
649884
