163
576
960
1321
1699
2087
2503
2866
3245
3640
4009
4345
4693
5080
5446
5767
6147
6578
6971
7323
7724
8112
8445
8652
9042
9447
9824
10191
10571
10983
11378
11737
12113
12488
12867
13233
13603
13975
14359
14694
15044
15455
15829
16157
16515
16895
17283
17640
18007
18388
18766
19107
19505
19915
20306
20659
21019
21381
21764
22133
22491
22895
23251
23618
24026
24434
24785
25125
25510
25890
26248
26631
27022
27388
27713
28115
28520
28907
29290
29675
30043
30408
30772
31129
31498
31852
32218
32609
32995
33335
33701
34085
34474
34854
35225
35620
36001
36334
36700
37106
37497
37849
38206
38564
38956
39320
39681
40079
40454
40790
41185
41583
41938
42281
42668
43015
43385
43750
44106
44464
44793
45145
45545
45962
46327
46696
47075
47463
47834
48206
48602
48983
49312
49688
50099
50486
50837
51188
51538
51931
52293
52670
53075
53464
53844
54251
54655
55012
55390
55761
56177
56557
56929
57307
57680
57998
58373
58783
59163
59508
59865
60228
60591
60922
61296
61672
62034
62353
62765
63174
63544
63893
64250
64631
65035
65410
65784
66169
66543
66875
67210
67582
67991
68306
68587
68873
69210
69528
69861
70312
70763
71159
71615
72038
72467
72860
73245
73666
74098
74487
74838
75210
75627
76033
76389
76778
77158
77516
77865
78220
78590
78965
79336
79673
80063
80475
80858
81172
81488
81842
82260
82650
83028
83426
83799
84150
84528
84904
85282
85623
85979
86368
86791
87151
87496
87849
88173
88552
88972
89388
89750
90131
90516
90916
91268
91625
92025
92405
92751
93140
93559
93946
94310
94680
95076
95474
95831
96212
96594
96977
97353
97715
98079
98451
98791
99139
99573
99978
100346
100733
101124
101503
101845
102193
102556
102921
103246
103587
104006
104410
104789
105166
105544
105943
106306
106664
107055
107431
107752
108117
108528
108925
109276
109635
110017
110418
110790
111111
111466
111820
112140
112544
112966
113358
113711
114079
114466
114840
115211
115590
115963
116297
116674
117056
117427
117779
118137
118506
118916
119297
119661
120054
120445
120787
121139
121529
121940
122315
122710
123119
123543
123918
124303
124689
125072
125463
125861
126247
126636
126991
127352
127783
128165
128499
128847
129210
129593
129949
130323
130700
131068
131388
131759
132150
132513
132874
133227
133609
134019
134387
134733
135114
135514
135834
136179
136578
136987
137361
137745
138136
138527
138889
139266
139653
139999
140357
140736
141127
141513
141868
142060
142402
142777
143128
143447
143806
144203
144583
144998
145411
145801
146160
146523
146722
147126
147496
147872
148270
148634
148979
149368
149780
150152
150501
150874
151290
151681
152025
152397
152762
153120
153495
153874
154252
154637
154982
155321
155733
156134
156479
156853
157233
157603
158004
158416
158799
159121
159484
159904
160313
160669
161055
161426
161803
162186
162580
162961
163331
163673
164027
164436
164828
165178
165538
165918
166328
166690
167054
167436
167812
168135
168526
168935
169307
169660
170024
170373
170751
171110
171469
171840
172217
172565
172950
173329
173703
174034
174379
174738
175134
175501
175866
176257
176619
176931
177307
177708
178094
178435
178795
179174
179572
179934
180300
180663
181014
181366
181732
182107
182473
182833
183029
183382
183793
184187
184542
184909
185287
185636
185974
186323
186710
187053
187395
187765
188198
188566
188927
189311
189678
190042
190413
190798
191169
191501
191841
192230
192626
192967
193322
193679
194037
194417
194788
195172
195555
195918
196267
196693
197091
197418
197788
198173
198539
198931
199336
199712
200046
200369
200699
201120
201497
201892
202284
202643
202998
203388
203772
204151
204515
204861
205262
205658
206009
206343
206699
207049
207396
207758
208133
208521
208851
209156
209566
209968
210326
210694
211079
211449
211821
212227
212604
212989
213356
213703
214088
214480
214857
215187
215547
215941
216349
216703
217080
217472
217813
218167
218544
218914
219266
219585
219935
220327
220696
221034
221392
221750
222076
222445
222842
223217
223607
223966
224332
224743
225140
225478
225845
226221
226584
226959
227343
227717
228066
228380
228696
229084
229483
229841
230208
230574
230927
231293
231683
232057
232406
232760
233118
233531
233910
234262
234635
235001
235390
235746
236102
236481
236862
237200
237599
238020
238378
238714
239060
239416
239814
240191
240570
240937
241285
241595
241955
242305
242671
243032
243374
243704
244074
244428
244772
245157
245543
245873
246255
246658
247044
247388
247739
248097
248495
248855
249190
249556
249936
250288
250692
251091
251463
251805
252159
252521
252931
253308
253668
254027
254366
254675
254970
255251
255543
255841
256115
256377
256655
257141
257587
257927
258224
258514
258785
259220
259630
260003
260370
260766
261162
261569
261969
262362
262698
262997
263314
263678
264055
264430
264812
265171
265492
265836
266161
266512
266897
267285
267627
267952
268252
268534
268806
269075
269341
269582
269871
270242
270596
270936
271352
271744
272173
272603
272999
273404
273810
274189
274570
274927
275300
275679
276039
276450
276866
277265
277644
277965
278276
278686
279087
279444
279851
280255
280646
281037
281412
281774
282134
282476
282790
283122
283518
283919
284289
284657
285059
285480
285867
286229
286578
286931
287328
287700
288063
288443
288821
289153
289483
289850
290235
290607
290933
291268
291692
292089
292425
292769
293132
293479
293837
294205
294566
294936
295281
295621
295986
296353
296700
297033
297377
297741
298104
298422
298768
299192
299591
299946
300382
300826
301211
301527
301870
302264
302684
303051
303423
303811
304184
304611
305021
305413
305762
306078
306431
306870
307257
307634
308033
308428
308821
309250
309668
310051
310391
310732
311136
311536
311907
312248
312590
312950
313369
313724
314058
314446
314827
315181
315578
315989
316357
316685
317041
317420
317782
318114
318466
318829
319157
319514
319916
320291
320625
320968
321313
321650
321993
322347
322694
323058
323372
323680
324023
324367
324692
325061
325436
325789
326150
326541
326925
327321
327668
327985
328380
328806
329181
329541
329932
330308
330660
331035
331423
331763
332075
332398
332775
333100
333427
333851
334255
334619
335036
335421
335749
336058
336392
336752
337108
337480
337859
338219
338543
338890
339299
339680
340006
340321
340647
340979
341323
341679
342028
342410
342750
343085
343494
343890
344227
344555
344881
345219
345565
345909
346274
346671
347009
347328
347723
348083
348386
348705
349076
349440
349785
350190
350577
350927
351237
351545
351920
352349
352727
353107
353478
353806
354133
354462
354782
355090
355384
355654
355912
356207
356554
356965
357350
357745
358148
358549
358976
359376
359771
360126
360518
360923
361295
361633
361952
362296
362672
363081
363459
363813
364203
364548
364901
365204
365487
365788
366132
366407
366675
366975
367469
367895
368326
368744
369147
369581
369972
370364
370758
371154
371570
371957
372360
372757
373136
373516
373937
374338
374707
375047
375373
375774
376183
376515
376890
377296
377676
378023
378371
378724
379101
379453
379803
380240
380632
380986
381342
381722
382105
382500
382885
383270
383666
384020
384387
384781
385174
385546
385899
386261
386654
387016
387345
387741
388125
388473
388855
389229
389621
389976
390319
390692
391109
391479
391788
392146
392518
392885
393281
393671
394039
394353
394684
395038
395453
395804
396174
396568
396930
397285
397662
398045
398385
398691
399038
399430
399833
400196
400567
400936
401260
401642
402049
402426
402779
403160
403522
403907
404281
404653
405034
405387
405702
406075
406484
406893
407275
407665
408055
408474
408874
409274
409627
409971
410382
410751
411115
411464
411807
412102
412467
412861
413227
413557
413898
414235
414569
414885
415191
415494
415803
416085
416382
416721
417099
417425
417735
418070
418426
418732
419047
419374
419704
419997
420289
420612
420992
421381
421780
422167
422523
422903
423324
423701
424065
424460
424820
425182
425589
425969
426324
426696
427067
427393
427758
428191
428597
428996
429372
429802
430220
430608
431016
431423
431816
432264
432655
433019
433414
433809
434204
434593
434964
435310
435692
436081
436465
436831
437191
437563
437923
438324
438696
439057
439393
439730
440044
440401
440831
441234
441605
441967
442288
442610
442948
443291
443588
443890
444216
444560
444914
445248
445583
445917
446237
446535
446851
447204
447516
447792
448067
448351
448759
449170
449549
449925
450292
450616
450905
451229
451660
452046
452349
452650
452987
453359
453763
454128
454464
454839
455205
455512
455829
456173
456531
456896
457084
457412
457777
458142
458465
458785
459134
459464
459759
460085
460431
460786
461123
461464
461825
462224
462573
462939
463331
463714
464076
464512
464913
465278
465661
466044
466431
466848
467241
467598
467983
468369
468749
469154
469556
469903
470214
470606
471050
471414
471721
472063
472426
472792
473164
473541
473921
474263
474587
474933
475311
475662
476030
476406
476750
477056
477425
477800
478135
478461
478809
479188
479581
479953
480319
480692
481044
481220
481609
482027
482401
482740
483122
483497
483852
484229
484565
484906
485211
485514
485875
486240
486554
486874
487203
487523
487808
488130
488476
488770
489048
489374
489757
490143
490493
490882
491268
491604
491932
492290
492675
493010
493369
493731
494072
494430
494812
495167
495504
495845
496167
496482
496871
497224
497550
497924
498279
498607
499001
499396
499754
500104
500461
500796
501178
501563
501929
502267
502622
502978
503328
503684
504046
504403
504772
505144
505520
505885
506262
506612
506945
507308
507711
508079
508441
508817
509153
509502
509891
510255
510632
510979
511355
511750
512112
512466
512834
513177
513479
513829
514258
514597
514921
515265
515625
515914
516229
516569
516901
517203
517545
517891
518246
518598
518953
519278
519583
519928
520253
520618
520971
521320
521639
521929
522208
522532
522854
523218
523598
523938
524250
524595
524989
525343
525667
525995
526312
526592
526917
527255
527601
527893
528175
528437
528684
528923
529200
529658
530043
530383
530749
531144
531536
531876
532223
532584
532946
533342
533766
534156
534531
534902
535269
535628
536006
536383
536779
537142
537499
537883
538213
538549
538921
539281
539627
540050
540429
540782
541138
541455
541738
542100
542484
542796
543098
543432
543782
544095
544455
544824
545125
545422
545745
546131
546546
546947
547332
547684
548048
548418
548831
549197
549522
549882
550247
550611
551009
551362
551666
551994
552348
552662
553003
553414
553810
554194
554576
554962
555338
555702
556034
556350
556658
556952
557274
557607
557947
558257
558583
558946
559282
559606
559950
560264
560568
560966
561355
561733
562093
562451
562778
563127
563474
563801
564130
564430
564755
565056
565381
565745
566135
566483
566820
567153
567480
567763
568077
568395
568715
569028
569305
569581
569942
570363
570705
571000
571297
571631
571932
572238
572604
572991
573350
573649
573943
574263
574641
574963
575267
575628
575994
576342
576699
577056
577393
577719
578006
578284
578568
578932
579308
579633
579965
580317
580676
581034
581380
581737
582101
582413
582720
583087
583449
583776
584094
584446
584823
585148
585490
585848
586217
586592
586955
587345
587755
588151
588513
588877
589237
589615
590002
590397
590804
591184
591586
592006
592409
592799
593187
593546
593959
594362
594754
595132
595480
595847
596261
596630
596989
597393
597755
598080
598441
598822
599152
599443
599752
600144
600544
600894
601251
601644
602005
602350
602728
603088
603413
603737
604084
604411
604772
605148
605524
605898
606237
606600
607014
607385
607748
608111
608459
608752
609073
609416
609742
610036
610331
610619
610918
611218
611502
611771
612032
612347
612629
612934
613294
613693
614035
614320
614627
614952
615298
615667
615987
616332
616700
617071
617398
617798
618176
618518
618861
619214
619596
620006
620413
620801
621176
621560
621947
622336
622682
623021
623369
623736
624083
624453
624830
625156
625483
625839
626254
626636
626964
627301
627589
627857
628105
628380
628879
629273
629668
630071
630473
630820
631159
631550
631927
632269
632551
632921
633339
633737
634094
634436
634801
635186
635541
635855
636198
636579
636955
637320
637695
638064
638419
638734
639066
639466
639851
640173
640503
640843
641209
641620
641952
642263
642602
642920
643215
643576
643974
644338
644675
645043
645415
645798
646179
646570
646914
647209
647496
647800
648136
648587
649001
649357
649669
