308
725
1142
1551
1963
2356
2741
3164
3566
3960
4350
4725
5138
5545
5935
6325
6708
7090
7505
7902
8294
8676
9059
9473
9895
10294
10696
11107
11514
11945
12361
12754
13155
13548
13955
14376
14767
15155
15538
15956
16361
16765
17148
17530
17927
18323
18722
19113
19476
19841
20242
20630
21022
21398
21768
22138
22544
22936
23329
23702
24073
24468
24869
25255
25646
26017
26375
26780
27167
27548
27931
28294
28664
29064
29453
29833
30209
30566
30762
31347
31727
32121
32491
32851
33246
33647
34020
34402
34779
35147
35549
35948
36332
36719
37088
37489
37891
38285
38675
39064
39441
39849
40253
40647
41025
41411
41821
42225
42628
43016
43412
43811
44219
44628
45028
45409
45603
46199
46614
47009
47404
47785
48187
48589
48983
49378
49759
50132
50543
50938
51326
51722
52095
52496
52899
53303
53696
54087
54458
54871
55277
55660
56054
56432
56810
57221
57609
57989
58376
58735
59143
59544
59927
60310
60694
61076
61488
61888
62277
62666
63045
63449
63864
64256
64641
65041
65427
65842
66251
66631
67026
67401
67807
68222
68606
68993
69377
69593
70155
70553
70933
71310
71665
72070
72457
72852
73228
73608
73985
74394
74794
75198
75588
75962
76388
76794
77196
77596
77976
78366
78779
79175
79575
79948
80320
80505
81111
81493
81876
82242
82605
83000
83389
83756
84130
84493
84865
85266
85653
86031
86416
86781
87127
87596
87989
88387
88767
88947
89346
89908
90298
90697
90916
91463
91875
92271
92660
92956
93430
93842
94260
94648
94863
95417
95824
96234
96629
97012
97406
97779
98189
98590
98981
99362
99738
100144
100521
100946
101335
101720
102110
102521
102925
103328
103663
104060
104522
104925
105321
105509
106073
106482
106892
107282
107499
108045
108415
108830
109219
109402
109956
110333
110690
111088
111469
111835
112203
112561
112919
113311
113682
114057
114432
114798
115179
115583
115952
116333
116703
117065
117456
117853
118232
118612
119001
119374
119785
120189
120568
120947
121317
121705
122090
122246
122816
123189
123539
123917
124309
124667
125033
125394
125755
126137
126528
126902
127268
127638
128015
128401
128795
129171
129530
129901
130287
130680
131008
131452
131826
132185
132585
132955
133353
133729
133956
134474
134879
135264
135648
136025
136379
136773
137174
137550
137949
138325
138700
139104
139507
139892
140281
140600
141045
141455
141847
142228
142611
142975
143375
143783
144168
144555
144945
145324
145551
146134
146527
146924
147292
147514
148101
148495
148878
149259
149527
150040
150453
150828
151207
151575
151962
152355
152742
153111
153493
153865
154256
154657
154992
155410
155786
156158
156557
156943
157327
157700
158078
158478
158885
159269
159665
160046
160249
160847
161259
161668
162058
162453
162877
163298
163704
164105
164341
164922
165347
165747
166151
166539
166933
167362
167759
168155
168557
168913
169359
169767
170159
170548
170926
171214
171734
172123
172513
172892
173268
173668
174081
174462
174843
175237
175633
176047
176452
176849
177067
177631
178059
178481
178869
179087
179635
180052
180460
180834
181227
181602
181990
182385
182790
183168
183460
183901
184303
184701
185089
185321
185839
186024
186592
186988
187365
187733
188096
188462
188859
189249
189637
190014
190377
190784
191188
191577
191972
192349
192717
193132
193364
193914
194302
194666
195056
195462
195824
196240
196627
196997
197414
197825
198213
198612
198991
199388
199801
200179
200579
200971
201342
201751
202150
202537
202913
203120
203669
204083
204478
204864
205034
205595
205997
206385
206762
207117
207480
207841
208206
208582
208945
209302
209655
210002
210369
210722
211086
211433
211777
212124
212495
212865
213218
213571
213904
214256
214614
214974
215324
215678
216015
216352
216698
217056
217401
217734
218069
218393
218734
219081
219421
219749
220087
220412
220727
221087
221431
221765
222107
222438
222755
223104
223461
223801
224127
224458
224789
225102
225465
225804
226128
226459
226753
227086
227414
227763
228101
228418
228743
229070
229383
229721
230071
230399
230728
231053
231382
231719
232066
232418
232751
233080
233412
233748
234095
234454
234794
235138
235469
235801
236172
236537
236906
237258
237612
237946
238335
238701
239066
239425
239768
240107
240477
240841
241188
241542
241878
242206
242584
242945
243303
243658
244008
244347
244717
245104
245468
245842
246198
246545
246934
247323
247682
248064
248424
248774
249156
249539
249897
250266
250618
250963
251339
251715
251972
252154
252335
252507
252789
252940
253286
253744
254122
254483
254845
255187
255556
255936
256304
256670
257033
257376
257767
258150
258518
258877
259240
259590
259967
260348
260719
261080
261448
261810
262194
262583
262963
263330
263601
264089
264482
264868
265240
265590
265962
266353
266734
267101
267480
267840
268208
268521
268996
269380
269761
270130
270515
270913
271141
271679
272053
272409
272801
273186
273562
273930
274292
274622
274999
275370
275728
276081
276422
276743
277110
277476
277810
278149
278490
278819
279153
279517
279870
280215
280552
280890
281216
281586
281945
282283
282631
282979
283311
283680
284058
284414
284769
285124
285462
285826
286205
286554
286911
287257
287594
287959
288334
288685
289030
289370
289704
290058
290423
290776
291127
291467
291811
292169
292528
292905
293255
293597
293950
294306
294672
295041
295400
295745
296090
296372
296829
297210
297578
297933
298292
298648
299040
299408
299774
300126
300478
300851
301241
301535
301987
302343
302695
303074
303463
303824
304203
304557
304905
305139
305667
306026
306396
306747
307088
307467
307847
308201
308570
308915
309244
309607
309978
310325
310685
311039
311363
311736
312115
312462
312820
313170
313509
313875
314256
314622
314983
315336
315670
316047
316417
316781
317137
317492
317832
318190
318560
318916
319258
319602
319933
320287
320656
321014
321355
321694
322035
322372
322734
323093
323439
323778
324108
324458
324813
325173
325509
325852
326191
326523
326893
327245
327584
327939
328269
328598
328979
329345
329698
330051
330401
330735
331117
331490
331842
332187
332527
332858
333205
333577
333929
334272
334620
334962
335298
335673
336028
336372
336716
337056
337387
337767
338126
338470
338818
339165
339496
339866
340235
340562
340906
341240
341559
341906
342267
342614
342944
343278
343622
343961
344335
344697
345034
345377
345719
346061
346417
346785
347126
347471
347813
348136
348498
348874
349224
349570
349913
350254
350625
350983
351337
351680
352020
352343
352700
353059
353412
353757
354084
354276
354754
355042
355439
355777
355968
356426
356742
357101
357439
357765
358102
358418
358736
359069
359427
359770
360098
360432
360758
361077
361429
361780
362111
362458
362791
363112
363460
363832
364189
364527
364876
365210
365551
365910
366266
366601
366945
367281
367605
367965
368336
368672
369016
369361
369683
370043
370402
370743
371077
371414
371735
372061
372410
372759
373079
373408
373737
374048
374397
374733
375064
375392
375721
376047
376383
376737
377091
377430
377767
378104
378432
378782
379129
379481
379813
380135
380464
380811
381161
381505
381842
382172
382503
382851
383200
383547
383890
384218
384548
384886
385237
385587
385913
386261
386591
386907
387277
387629
387978
388318
388655
388980
389324
389699
390044
390378
390720
391052
391376
391748
392093
392420
392750
393088
393405
393756
394125
394462
394797
395136
395473
395821
396201
396553
396885
397224
397560
397885
398237
398589
398915
399247
399572
399889
400235
400590
400931
401253
401578
401909
402232
402568
402916
403241
403572
403897
404222
404569
404925
405275
405609
405940
406269
406602
406949
407297
407621
407944
408269
408592
408941
409283
409622
409954
410281
410599
410943
411287
411626
411955
412274
412595
412910
413262
413611
413951
414293
414623
414941
415301
415665
416002
416348
416675
416999
417324
417690
418029
418357
418696
419021
419335
419688
420045
420375
420709
421041
421358
421693
422039
422388
422708
423048
423370
423680
424028
424378
424713
425044
425381
425707
426044
426404
426763
427098
427438
427774
428100
428451
428799
429137
429466
429804
430121
430463
430817
431161
431490
431819
432145
432474
432825
433169
433506
433831
434166
434492
434831
435184
435524
435848
436162
436487
436808
437146
437487
437813
438131
438450
438764
439108
439455
439787
440127
440450
440786
441126
441471
441827
442163
442507
442841
443179
443541
443906
444242
444588
444918
445231
445580
445919
446260
446582
446905
447226
447537
447889
448221
448541
448860
449174
449468
449788
450122
450439
450744
451044
451346
451628
451928
452270
452584
452884
453191
453494
453795
454108
454449
454784
455087
455398
455710
456007
456335
456675
457004
457314
457621
457936
458246
458572
458915
459244
459549
459859
460172
460485
460821
461158
461476
461793
462101
462411
462728
463052
463398
463713
464027
464342
464647
464977
465296
465625
465935
466235
466532
466837
467158
467474
467810
468114
468414
468720
469011
469343
469659
469987
470296
470591
470897
471193
471521
471854
472176
472489
472797
473108
473419
473759
474088
474420
474753
475058
475374
475708
476049
476388
476718
477037
477353
477655
477993
478333
478658
478979
479297
479604
479910
480252
480585
480898
481220
481539
481836
482145
482475
482807
483123
483436
483750
484049
484376
484704
485030
485336
485644
485957
486250
486573
486904
487236
487539
487842
488152
488449
488781
489109
489439
489750
490052
490367
490665
490995
491312
491643
491949
492253
492567
492868
493200
493526
493838
494157
494456
494763
495067
495394
495710
496034
496343
496635
496957
497269
497601
497925
498247
498556
498852
499160
499482
499798
500117
500422
500725
501027
501324
501646
501961
502272
502580
502891
503185
503481
503812
504130
504455
504760
505067
505374
505673
506002
506335
506659
506965
507283
507581
507878
508214
508533
508853
509161
509478
509778
510073
510428
510763
511087
511415
511735
512049
512361
512719
513056
513376
513705
514036
514339
514678
515033
515346
515661
515965
516276
516567
516885
517224
517531
517834
518135
518436
518734
519052
519385
519702
520003
520303
520617
520922
521243
521580
521898
522204
522507
522819
523121
523445
523778
524087
524398
524703
525012
525323
525648
525979
526290
526598
526907
527210
527543
527878
528222
528540
528849
529159
529458
529787
530100
530431
530739
531036
531341
531636
531965
532290
532611
532927
533224
533532
533827
534158
534490
534805
535127
535438
535743
536054
536400
536722
537049
537381
537684
537994
538319
538658
538987
539309
539637
539953
540259
540603
540947
541277
541607
541924
542241
542552
542885
543227
543543
543866
544188
544491
544815
545158
545496
545799
546123
546434
546721
547050
547378
547695
547992
548289
548595
548878
549196
549522
549844
550143
550447
550755
551052
551369
551698
552026
552336
552642
552964
553271
553599
553930
554258
554567
554868
555184
555479
555798
556124
556437
556744
557046
557352
557650
557970
558285
558597
558907
559195
559505
559801
560108
560424
560725
561034
561320
561620
561912
562216
562529
562830
563123
563414
563699
563983
564288
564584
564888
565184
565476
565767
566056
566358
566672
566985
567282
567588
567875
568165
568466
568788
569101
569409
569732
570034
570336
570652
570978
571292
571586
571888
572188
572474
572767
573102
573415
573713
574027
574330
574626
574926
575265
575524
575885
576215
576524
576827
577119
577453
577726
578064
578375
578665
578959
579242
579550
579868
580161
580373
580702
580995
581263
581563
581869
582166
582447
582736
583016
583305
583592
583896
584211
584504
584795
585085
585373
585663
585970
586281
586596
586885
587177
587472
587763
588065
588383
588699
588994
589296
589601
589903
590236
590564
590905
591226
591531
591849
592165
592495
592824
593147
593460
593768
594065
594378
594700
595012
595326
595632
595932
596241
596549
596879
597207
597527
597843
598135
598433
598746
599057
599367
599672
599965
600254
600542
600823
601145
601450
601755
602053
602353
602651
602935
603272
603603
603913
604239
604553
604853
605158
605513
605841
606145
606467
606776
607077
607388
607723
608059
608368
608691
609006
609297
609623
609957
610277
610582
610897
611195
611491
611813
612131
612458
612756
613061
613368
613657
613978
614303
614624
614918
615227
615532
615817
616129
616450
616779
617080
617388
617698
617979
618295
618619
618930
619231
619520
619821
620103
620397
620705
621022
621314
621604
621894
622187
622480
622803
623112
623420
623720
624014
624313
624601
624908
625216
625521
625819
626113
626408
626699
627009
627311
627622
627921
628207
628504
628786
629086
629403
629703
629998
630288
630569
630852
631150
631452
631757
632037
632339
632624
632902
633206
633511
633818
634125
634418
634716
635007
635286
635603
635913
636218
636512
636814
637111
637393
638042
638374
638684
639005
639312
639605
639942
640261
640567
640853
641151
641436
641704
642004
642308
642603
642878
643157
643436
643711
643970
644271
644566
644852
645125
645396
645669
645941
646208
646506
646802
647080
647353
647625
647893
648146
648421
648709
648993
649261
649523
649783
