155
511
843
1205
1623
1970
2321
2694
3060
3400
3731
4108
4483
4817
5173
5515
5839
6155
6492
6853
7174
7490
7831
8180
8512
8825
9159
9493
9836
10152
10487
10824
11152
11468
11785
12108
12423
12729
13082
13417
13728
14082
14464
14802
15185
15594
15957
16311
16688
17064
17418
17779
18155
18511
18857
19209
19560
19875
20195
20532
20867
21168
21480
21825
22161
22512
22872
23211
23534
23865
24228
24557
24909
25279
25652
26004
26367
26726
27061
27375
27702
28027
28347
28657
28979
29345
29665
29995
30345
30687
31022
31374
31759
32101
32443
32790
33137
33463
33803
34153
34502
34820
35190
35534
35858
36226
36601
36917
37244
37625
38002
38326
38694
39090
39427
39766
40129
40494
40815
41149
41507
41836
42139
42457
42800
43125
43446
43794
44148
44470
44814
45182
45516
45853
46236
46599
46916
47228
47557
47869
48184
48514
48852
49182
49530
49884
50215
50537
50907
51265
51592
51938
52307
52634
52945
53276
53604
53905
54215
54549
54877
55187
55517
55917
56271
56605
56976
57321
57630
57973
58372
58717
59059
59421
59774
60083
60420
60769
61116
61431
61766
62136
62469
62772
63126
63506
63838
64180
64559
64917
65231
65541
65855
66170
66469
66786
67131
67457
67792
68224
68594
68967
69348
69730
70087
70463
70833
71187
71562
71931
72299
72651
73010
73374
73718
74072
74428
74791
75126
75463
75826
76187
76520
76861
77227
77581
77904
78226
78556
78868
79184
79499
79822
80137
80479
80836
81190
81510
81847
82167
82470
82786
83103
83401
83700
84016
84316
84606
84906
85217
85525
85868
86227
86572
86950
87312
87647
87998
88325
88630
88929
89250
89607
89953
90298
90693
91094
91459
91828
92210
92564
92888
93253
93627
93966
94283
94645
95004
95325
95657
96005
96328
96631
96973
97342
97672
98032
98406
98722
99032
99368
99694
100003
100322
100657
100981
101332
101725
102080
102410
102770
103148
103493
103833
104191
104525
104842
105183
105568
105950
106300
106643
106982
107294
107611
107920
108255
108582
108915
109278
109648
109985
110349
110735
111104
111438
111793
112181
112530
112854
113194
113548
113875
114196
114537
114872
115191
115527
115866
116191
116520
116884
117255
117580
117919
118303
118630
118960
119302
119655
119977
120307
120654
121011
121328
121677
122034
122353
122660
122995
123347
123667
123989
124373
124748
125076
125416
125758
126090
126390
126725
127123
127464
127781
128128
128495
128808
129124
129473
129815
130121
130441
130786
131104
131406
131732
132077
132399
132705
133036
133410
133771
134098
134485
134853
135183
135523
135891
136220
136520
136847
137203
137521
137834
138195
138576
138906
139253
139655
139997
140310
140664
141049
141383
141688
142041
142409
142766
143104
143476
143874
144225
144549
144908
145254
145571
145880
146217
146562
146877
147200
147554
147931
148271
148645
149027
149360
149674
149997
150325
150631
150946
151281
151623
151931
152244
152577
152914
153218
153557
153930
154288
154618
154957
155290
155599
155900
156227
156581
156902
157208
157534
157844
158139
158441
158792
159142
159466
159857
160249
160580
160919
161278
161610
161926
162245
162581
162908
163210
163517
163850
164161
164473
164803
165176
165531
165846
166168
166501
166816
167121
167415
167706
168005
168313
168616
168926
169227
169670
170088
170452
170819
171194
171572
171930
172307
172681
173045
173403
173766
174123
174444
174781
175167
175517
175845
176215
176583
176909
177231
177583
177936
178281
178596
178950
179321
179699
180023
180348
180681
181017
181323
181636
181985
182341
182660
182997
183370
183724
184032
184375
184752
185087
185405
185741
186073
186379
186692
187022
187341
187652
187979
188328
188676
188999
189352
189754
190112
190464
190816
191158
191475
191810
192166
192497
192826
193157
193515
193857
194209
194565
194908
195233
195572
195905
196231
196547
196865
197200
197527
197840
198177
198523
198881
199206
199550
199916
200248
200570
200900
201215
201531
201867
202225
202562
202902
203281
203619
203937
204276
204622
204956
205279
205628
205980
206289
206618
206953
207272
207581
207912
208285
208613
208920
209293
209670
209997
210316
210668
211013
211327
211649
211985
212305
212605
212915
213249
213576
213875
214194
214543
214863
215163
215476
215801
216114
216411
216716
217085
217406
217707
218034
218366
218684
218982
219301
219666
220000
220304
220625
220971
221283
221583
221924
222287
222603
222904
223225
223607
223945
224295
224677
225024
225330
225676
226032
226359
226669
226994
227351
227669
227976
228296
228607
228915
229224
229558
229873
230189
230491
230784
231076
231404
231732
232033
232338
232676
232992
233293
233616
233966
234294
234598
234928
235296
235626
235931
236287
236656
236984
237293
237649
237994
238303
238627
238978
239315
239622
239946
240305
240623
240927
241256
241602
241928
242230
242543
242904
243229
243535
243868
244197
244507
244802
245119
245464
245778
246069
246389
246700
247010
247298
247609
247934
248240
248537
248858
249202
249522
249829
250171
250534
250856
251193
251534
251874
252190
252505
252860
253220
253536
253904
254286
254620
254941
255265
255619
255933
256267
256674
257058
257395
257736
258103
258422
258728
259041
259360
259672
259998
260329
260657
260982
261331
261723
262073
262409
262735
263048
263360
263678
263985
264299
264597
264909
265239
265557
265865
266180
266487
266781
267075
267396
267745
268060
268410
268836
269196
269547
269916
270270
270587
270923
271286
271617
271923
272268
272658
273008
273328
273676
274045
274379
274701
275042
275412
275740
276060
276409
276756
277066
277404
277764
278106
278421
278754
279102
279405
279698
279999
280315
280615
280905
281217
281553
281859
282147
282465
282799
283114
283412
283742
284120
284437
284765
285099
285420
285724
286035
286354
286670
286972
287274
287616
287938
288250
288569
288900
289224
289527
289892
290285
290641
290992
291343
291699
292015
292340
292694
293051
293381
293732
294115
294467
294786
295136
295487
295828
296136
296454
296806
297125
297427
297750
298102
298454
298768
299109
299458
299772
300081
300404
300736
301054
301371
301702
302046
302359
302686
303084
303461
303799
304131
304467
304800
305103
305445
305803
306152
306462
306786
307129
307484
307793
308117
308452
308791
309101
309411
309755
310083
310380
310703
311036
311360
311662
311962
312273
312589
312880
313180
313506
313859
314176
314536
314985
315353
315733
316114
316491
316839
317199
317571
317909
318240
318590
318938
319252
319573
319937
320286
320602
320959
321336
321685
321995
322337
322727
323064
323391
323757
324112
324430
324728
325068
325404
325706
326005
326310
326619
326916
327210
327530
327919
328249
328626
329031
329400
329721
330066
330450
330767
331080
331414
331746
332054
332384
332732
333069
333377
333698
334026
334347
334662
334994
335383
335720
336037
336368
336702
337023
337330
337680
338042
338363
338671
339015
339371
339697
340008
340373
340765
341091
341403
341724
342034
342344
342661
343018
343373
343686
344035
344452
344812
345149
345523
345902
346223
346546
346877
347219
347535
347864
348210
348565
348880
349205
349587
349970
350295
350623
350958
351271
351562
351885
352210
352527
352821
353140
353475
353803
354104
354432
354787
355140
355449
355782
356132
356441
356734
357040
357348
357654
357944
358242
358542
358846
359137
359436
359754
360077
360383
360701
361036
361369
361683
362020
362429
362783
363122
363470
363801
364102
364426
364782
365098
365411
365734
366074
366394
366701
367020
367358
367673
367979
368294
368620
368964
369277
369594
369919
370239
370546
370865
371188
371515
371826
372181
372525
372856
373177
373501
373828
374173
374482
374808
375155
375543
375886
376245
376624
376959
377263
377584
377927
378264
378578
378885
379201
379509
379805
380113
380429
380739
381038
381351
381689
382018
382319
382627
382948
383260
383561
383868
384170
384470
384769
385057
385367
385663
385988
386317
386671
387021
387392
387828
388187
388516
388829
389130
389438
389751
390064
390385
390695
391046
391493
391873
392285
392680
393053
393427
393790
394118
394436
394756
395061
395364
395689
396025
396352
396719
397113
397453
397794
398189
398531
398862
399193
399523
399843
400174
400506
400827
401136
401492
401834
402161
402486
402841
403221
403552
403895
404234
404548
404864
405221
405606
405982
406311
406660
407017
407342
407660
407979
408312
408626
408942
409294
409642
409954
410284
410609
410935
411234
411545
411854
412177
412490
412807
413140
413470
413786
414113
414443
414752
415057
415393
415734
416039
416338
416638
416970
417271
417564
417876
418172
418453
418746
419030
419334
419621
419908
420215
420524
420825
421128
421473
421804
422119
422433
422754
423069
423380
423695
424037
424357
424687
425024
425380
425692
426004
426328
426635
426953
427326
427659
428005
428406
428771
429100
429454
429832
430161
430470
430788
431106
431403
431698
432012
432350
432662
432970
433306
433643
433944
434251
434562
434871
435165
435474
435840
436187
436503
436850
437217
437542
437847
438169
438509
438816
439111
439438
439789
440116
440425
440795
441211
441558
441884
442209
442534
442845
443140
443468
443817
444163
444479
444837
445236
445572
445904
446242
446581
446877
447174
447464
447750
448036
448310
448609
448928
449231
449565
449964
450342
450683
451074
451474
451823
452182
452547
452872
453173
453475
453807
454103
454400
454708
455035
455337
455631
455924
456256
456558
456850
457148
457461
457783
458086
458399
458736
459058
459353
459641
459934
460223
460522
460815
461106
461411
461712
462026
462330
462633
462941
463249
463565
463870
464167
464457
464737
465014
465294
465572
465845
466111
466382
466655
466938
467163
467442
467706
467976
468253
468515
468780
469054
469322
469591
469856
470132
470412
470693
470968
471265
471617
472007
472404
472780
473160
473501
473841
474202
474544
474868
475171
475483
475807
476141
476445
476771
477117
477438
477742
478046
478369
478682
478966
479254
479555
479851
480134
480434
480744
481038
481342
481656
481978
482287
482663
483058
483401
483753
484126
484496
484826
485141
485454
485791
486111
486417
486728
487060
487389
487705
488049
488425
488759
489075
489378
489691
489990
490300
490639
490958
491270
491601
491964
492312
492620
492942
493285
493593
493902
494219
494546
494864
495205
495624
496003
496375
496731
497070
497398
497713
498009
498306
498607
498918
499218
499509
499838
500178
500485
500791
501109
501444
501750
502042
502344
502651
502938
503223
503516
503822
504121
504409
504712
505042
505347
505646
505961
506269
506569
506877
507192
507503
507804
508128
508440
508752
509097
509542
509916
510315
510688
511066
511456
511830
512198
512543
512923
513299
513639
514015
514384
514718
515030
515351
515648
515934
516232
516552
516850
517138
517433
517720
518010
518261
518562
518837
519118
519416
519704
519987
520286
520617
520913
521227
521590
521978
522303
522646
523004
523345
523649
523962
524301
524688
525055
525371
525708
526117
526498
526841
527179
527520
527864
528183
528486
528800
529149
529487
529811
530155
530590
530962
531326
531684
532034
532361
532669
532975
533296
533596
533920
534251
534627
534983
535390
535791
536163
536562
536943
537300
537676
538025
538373
538692
539003
539304
539602
539933
540290
540609
540968
541297
541597
541899
542219
542585
542890
543190
543553
543907
544252
544668
545065
545414
545751
546104
546413
546711
547023
547321
547623
547948
548275
548601
548904
549218
549544
549866
550171
550514
550820
551112
551407
551695
551979
552274
552562
552891
553235
553550
553871
554298
554700
555060
555444
555826
556176
556559
556933
557293
557686
558099
558463
558864
559250
559615
560012
560388
560747
561120
561497
561844
562173
562504
562814
563116
563418
563735
564058
564354
564652
564958
565267
565566
565857
566139
566426
566720
567006
567300
567618
567919
568225
568543
568885
569233
569545
569875
570228
570660
571013
571322
571653
571971
572287
572596
572891
573218
573555
573877
574190
574498
574821
575169
575482
575794
576118
576438
576762
577061
577350
577645
577941
578234
578525
578823
579131
579445
579750
580064
580521
580945
581352
581723
582117
582494
582859
583238
583766
583944
584323
584704
585064
585444
585803
586152
586487
586830
587150
587477
587917
588065
588276
588705
589078
589469
589856
590254
590651
591009
591376
591626
591898
592172
592440
592702
592954
593211
593468
593725
593992
594244
594513
594800
595092
595367
595642
595938
596245
596550
596834
597125
597446
597770
598083
598389
598710
599181
599552
599956
600404
600810
601191
601604
601976
602338
602745
603127
603479
603878
604307
604686
605122
605515
605899
606304
606673
607057
607443
607800
608156
608537
608895
609247
609639
610068
610483
610865
611252
611659
612018
612341
612689
613105
613500
613911
614293
614684
615043
615419
615783
616118
616413
616732
617071
617368
617666
617980
618289
618581
618884
619186
619484
619768
620047
620344
620650
620955
621233
621519
621811
622110
622408
622692
622997
623306
623603
623909
624196
624494
624785
625084
625387
625687
625985
626294
626605
626905
627205
627503
627805
628121
628412
628700
629004
629310
629617
629915
630211
630527
630851
631156
631448
631766
632101
632440
632771
633225
633628
634005
634415
634790
635182
635575
635943
636306
636670
637022
637411
637793
638149
638548
638902
639248
639622
640005
640357
640763
641126
641506
641884
642228
642593
642955
643297
643607
643911
644208
644499
644785
645088
645381
645670
645961
646242
646527
646823
647155
647557
647751
648153
648474
648749
649048
649351
649640
