281
557
833
1101
1366
1636
1906
2176
2444
2716
2984
3253
3525
3793
4063
4341
4611
4883
5161
5431
5704
5973
6251
6529
6800
7081
7356
7630
7906
8180
8454
8735
9007
9279
9558
9828
10099
10369
10640
10915
11185
11457
11732
12009
12279
12550
12826
13110
13385
13664
13947
14218
14494
14768
15042
15316
15587
15860
16134
16412
16683
16951
17226
17509
17786
18066
18348
18629
18910
19185
19466
19750
20022
20301
20584
20862
21142
21417
21696
21981
22260
22545
22821
23094
23376
23650
23926
24204
24478
24758
25040
25307
25588
25864
26146
26420
26694
26978
27251
27524
27798
28072
28352
28623
28892
29170
29445
29712
29984
30256
30536
30810
31081
31362
31640
31909
32183
32455
32735
33004
33277
33563
33840
34116
34394
34672
34955
35135
35512
35790
35970
36340
36614
36885
37165
37437
37715
37991
38262
38536
38809
39086
39365
39641
39922
40199
40478
40755
41028
41308
41590
41864
42142
42419
42690
42964
43238
43515
43799
44075
44355
44634
44907
45184
45457
45735
46016
46290
46575
46855
47131
47409
47687
47966
48248
48523
48799
49076
49348
49621
49895
50168
50440
50711
50994
51265
51532
51813
52081
52361
52640
52911
53194
53471
53646
54011
54285
54556
54828
55098
55375
55645
55913
56186
56460
56737
56932
57278
57556
57827
58091
58358
58626
58894
59159
59429
59704
59969
60236
60510
60777
61054
61328
61594
61872
62140
62405
62675
62945
63212
63482
63752
64029
64299
64564
64840
65108
65384
65658
65927
66206
66476
66745
67015
67284
67557
67829
68099
68378
68647
68912
69189
69457
69734
70006
70276
70554
70826
71095
71366
71633
71904
72178
72445
72715
72986
73255
73524
73787
74061
74336
74599
74777
75142
75414
75679
75947
76211
76484
76750
77013
77289
77556
77820
78086
78357
78627
78894
79160
79434
79700
79963
80235
80499
80765
81035
81301
81570
81840
82106
82373
82642
82909
83180
83445
83717
83986
84252
84520
84781
85049
85323
85589
85856
86129
86399
86665
86937
87206
87482
87749
88023
88298
88571
88841
89107
89380
89657
89928
90201
90479
90754
91028
91301
91576
91854
92126
92402
92676
92942
93216
93480
93746
94024
94289
94563
94756
95102
95379
95555
95918
96111
96466
96734
97006
97269
97539
97799
98067
98341
98606
98874
99148
99420
99696
99970
100247
100532
100811
101089
101373
101652
101929
102203
102480
102762
103035
103315
103594
103871
104149
104332
104691
104967
105236
105410
105770
106037
106297
106560
106819
107090
107353
107621
107903
108181
108459
108739
109020
109309
109586
109863
110149
110427
110696
110972
111246
111528
111802
112076
112357
112636
112910
113182
113454
113732
114000
114272
114547
114819
115082
115353
115630
115908
116183
116456
116734
117006
117280
117547
117814
118090
118354
118617
118891
119158
119420
119686
119951
120224
120490
120755
121027
121299
121567
121833
122102
122377
122643
122908
123182
123450
123711
123978
124246
124517
124784
125049
125325
125595
125781
126128
126396
126669
126933
127197
127471
127737
128000
128273
128542
128816
129090
129359
129636
129908
130177
130450
130717
130994
131269
131540
131816
132021
132352
132626
132895
133167
133437
133705
133981
134254
134522
134701
135060
135332
135606
135875
136145
136417
136685
136959
137223
137490
137768
138033
138300
138574
138846
139105
139372
139637
139909
140174
140439
140712
140896
141244
141514
141783
142058
142326
142595
142877
143150
143416
143690
143960
144235
144506
144773
145049
145314
145575
145842
146106
146374
146642
146904
147175
147443
147703
147976
148241
148512
148788
148981
149330
149601
149871
150064
150405
150677
150949
151215
151491
151763
152028
152301
152567
152749
153104
153372
153640
153822
154163
154432
154692
154954
155223
155486
155760
156038
156309
156505
156851
157117
157390
157657
157918
158185
158451
158712
158972
159236
159506
159763
160028
160300
160565
160824
161089
161350
161614
161880
162137
162406
162670
162930
163196
163461
163731
163999
164266
164538
164807
164994
165336
165596
165857
166124
166379
166637
166904
167166
167422
167686
167946
168134
168476
168741
169011
169272
169531
169743
170055
170316
170584
170838
171096
171362
171622
171879
172141
172405
172670
172936
173200
173392
173739
174001
174265
174524
174793
175057
175317
175585
175850
176110
176378
176557
176904
177175
177438
177707
177973
178241
178508
178704
179034
179305
179564
179824
180095
180354
180618
180883
181144
181336
181682
181948
182221
182492
182757
183025
183298
183485
183848
184121
184404
184592
184947
185219
185490
185765
186036
186309
186582
186855
187119
187385
187654
187928
188190
188453
188727
188993
189258
189524
189788
190060
190329
190509
190867
191136
191394
191659
191920
192191
192453
192714
192986
193251
193509
193780
194045
194308
194581
194847
195114
195385
195652
195847
196179
196450
196715
196979
197241
197509
197776
198039
198304
198565
198838
199105
199371
199558
199910
200172
200439
200704
200969
201232
201495
201765
202029
202296
202567
202834
203106
203381
203652
203836
204203
204477
204754
205026
205299
205485
205849
206133
206351
206684
206962
207233
207510
207787
208062
208346
208528
208894
209176
209453
209636
210001
210275
210552
210744
211091
211363
211630
211907
212174
212438
212714
212975
213234
213416
213762
214028
214292
214551
214821
215084
215343
215527
215868
216139
216405
216670
216940
217209
217477
217661
218028
218310
218533
218661
219048
219338
219620
219807
220173
220462
220747
220932
221312
221591
221862
222046
222410
222685
222959
223234
223518
223798
224077
224367
224650
224944
225229
225514
225805
226087
226363
226643
226912
227190
227458
227722
227999
228268
228531
228801
229072
229266
229619
229889
230165
230434
230697
230970
231234
231513
231787
232058
232345
232525
232898
233180
233462
233651
234023
234304
234589
234869
235143
235424
235704
235997
236275
236562
236854
237137
237417
237697
237973
238257
238535
238811
239088
239272
239636
239908
240183
240458
240728
241011
241283
241556
241833
242109
242388
242667
242851
243221
243496
243765
244041
244307
244489
244847
245114
245388
245656
245918
246189
246459
246733
247010
247284
247560
247839
248110
248384
248659
248841
249204
249479
249762
250032
250300
250576
250850
251134
251409
251589
251956
252232
252496
252768
253036
253310
253583
253853
254138
254416
254690
254972
255254
255545
255825
256106
256397
256680
256961
257240
257521
257806
258085
258368
258649
258930
259208
259484
259663
260046
260320
260597
260879
261153
261334
261702
261975
262257
262531
262809
262990
263361
263642
263916
264107
264476
264753
265038
265314
265589
265872
266156
266442
266734
267024
267318
267609
267901
268184
268474
268768
269046
269331
269619
269896
270179
270459
270742
271025
271307
271596
271879
272162
272448
272736
273030
273242
273590
273882
274163
274438
274716
274996
275280
275561
275848
276130
276410
276699
276980
277271
277553
277828
278121
278404
278677
278958
279238
279523
279800
280081
280360
280640
280917
281187
281469
281750
282020
282196
282571
282840
283115
283385
283652
283928
284201
284471
284746
285020
285295
285567
285848
286129
286404
286688
286965
287147
287519
287792
288066
288348
288625
288902
289187
289467
289745
290028
290314
290596
290875
291164
291445
291721
292006
292283
292564
292847
293127
293416
293699
293979
294264
294549
294837
295117
295397
295684
295967
296242
296517
296794
297078
297354
297633
297915
298196
298476
298757
298937
299277
299565
299754
300128
300406
300686
300959
301238
301522
301799
302089
302285
302643
302930
303209
303494
303772
304050
304335
304618
304896
305172
305454
305739
306018
306305
306592
306870
307159
307446
307730
308014
308296
308583
308866
309140
309416
309693
309976
310252
310524
310808
311082
311353
311630
311902
312182
312453
312726
313001
313274
313545
313810
314080
314357
314626
314891
315171
315445
315713
315991
316269
316551
316827
317103
317385
317665
317943
318216
318494
318781
319056
319336
319622
319901
320179
320461
320739
321024
321304
321584
321869
322145
322423
322695
322974
323253
323523
323801
324076
324349
324628
324900
325178
325457
325729
326007
326285
326555
326827
327100
327379
327655
327929
328213
328490
328763
329048
329322
329603
329883
330156
330445
330726
331001
331280
331562
331847
332122
332402
332685
332965
333248
333520
333800
334077
334350
334626
334903
335174
335446
335722
335998
336275
336550
336838
337120
337395
337686
337965
338251
338532
338807
339093
339374
339645
339920
340199
340478
340752
341032
341308
341587
341764
342128
342404
342683
342951
343220
343495
343763
343946
344289
344557
344828
345093
345360
345629
345901
346170
346440
346711
346991
347262
347532
347814
348085
348350
348624
348898
349177
349452
349727
350008
350285
350559
350832
351108
351385
351655
351921
352202
352470
352645
353000
353269
353539
353804
354070
354347
354618
354885
355155
355424
355696
355965
356230
356506
356773
357034
357309
357488
357847
358121
358389
358665
358936
359204
359475
359743
360014
360210
360666
361092
361354
361629
361896
362168
362441
362710
362988
363263
363529
363803
364074
364348
364617
364884
365161
365427
365688
365962
366225
366496
366770
367037
367316
367587
367855
368129
368400
368674
368941
369210
369487
369757
370017
370291
370560
370837
371104
371371
371650
371924
372189
372464
372735
373009
373280
373548
373828
374096
374269
374633
374902
375174
375444
375708
375986
376258
376521
376795
377070
377342
377526
377883
378162
378426
378689
378963
379226
379497
379770
380036
380309
380580
380850
381120
381305
381658
381933
382199
382467
382735
383002
383271
383531
383800
384076
384342
384612
384893
385073
385438
385712
385982
386258
386527
386796
387069
387335
387600
387864
388133
388409
388675
388853
389221
389495
389759
390030
390296
390565
390833
391097
391372
391641
391908
392178
392448
392634
392992
393261
393538
393811
394076
394344
394615
394891
395160
395432
395709
395982
396252
396522
396793
397072
397336
397606
397885
398158
398429
398611
398965
399243
399512
399779
400046
400314
400579
400842
401107
401377
401637
401903
402174
402444
402707
402974
403241
403516
403786
404058
404335
404608
404882
405056
405427
405707
405975
406248
406527
406804
407076
407254
407612
407893
408164
408429
408704
408974
409237
409502
409774
409955
410311
410579
410856
411126
411393
411668
411935
412117
412480
412747
413023
413293
413557
413824
414092
414362
414631
414900
415177
415448
415714
415991
416260
416537
416813
417082
417362
417633
417898
418170
418440
418712
418984
419254
419530
419712
420064
420338
420604
420878
421150
421414
421687
421954
422213
422483
422749
423018
423286
423553
423829
424096
424361
424634
424900
425082
425441
425706
425976
426241
426500
426768
427036
427306
427576
427846
428127
428399
428670
428950
429219
429503
429780
429955
430327
430604
430870
431144
431412
431688
431955
432223
432500
432773
433040
433312
433582
433763
434129
434395
434674
434944
435204
435472
435738
436010
436274
436543
436819
437001
437354
437625
437890
438164
438432
438695
438971
439238
439502
439774
440041
440308
440579
440847
441117
441387
441654
441922
442182
442450
442723
442985
443249
443518
443784
444046
444312
444574
444845
445108
445374
445648
445918
446181
446444
446710
446980
447243
447503
447776
448038
448295
448564
448825
449093
449359
449626
449896
450163
450424
450689
450952
451217
451482
451741
452008
452268
452528
452793
453052
453313
453583
453845
454021
454378
454646
454908
455168
455432
455698
455957
456217
456483
456745
457003
457267
457526
457707
458057
458320
458590
458856
459116
459378
459641
459908
460170
460430
460704
460882
461224
461495
461758
462027
462291
462555
462828
463005
463351
463619
463881
464144
464407
464666
464934
465194
465455
465630
465980
466245
466512
466775
467038
467307
467575
467837
468097
468361
468630
468889
469147
469417
469677
469936
470204
470466
470735
471003
471267
471540
471807
472069
472332
472509
472859
473131
473391
473658
473922
474188
474458
474720
474988
475259
475525
475789
476065
476334
476595
476863
477132
477404
477671
477938
478209
478388
478741
479008
479276
479545
479811
480076
480354
480622
480884
481153
481423
481695
481961
482144
482497
482768
483029
483298
483563
483837
484106
484369
484648
484917
485178
485449
485721
485904
486259
486525
486796
487065
487326
487593
490529
490791
491061
491325
491583
491852
492111
492379
492645
492909
493186
493453
493715
493986
494253
494433
494788
495055
495326
495587
495847
496118
496377
496646
496917
497181
497452
497632
497985
498252
498518
498779
499052
499311
499573
499838
500100
500364
500638
502771
503033
503303
503572
503840
504110
504380
504646
504917
505185
505466
505979
506273
506538
506802
507072
507336
507602
507869
508132
508394
508659
508920
509182
509440
509702
509972
510237
510512
510786
511062
511335
511511
511875
512153
512417
512680
512952
513218
513485
513747
514017
514290
514553
514824
515094
515362
515631
515896
516164
516439
516704
516875
517238
517510
517779
518042
518312
518584
518851
519126
519399
519663
519931
520197
520459
520724
520981
521236
521498
521761
522019
522193
522537
522805
523065
523323
523593
523850
524101
524359
524613
524871
525127
525383
525643
525900
526157
526421
526675
526940
527206
527466
527734
527926
528260
528521
528778
529037
529298
529556
529811
530076
530337
530593
530854
531114
531380
531642
531906
532175
532437
532702
532966
533225
533485
533755
534012
534269
534536
534798
535056
535315
535576
535840
536099
536359
536628
536887
537143
537408
537667
537931
538190
538447
538707
538965
539223
539482
539740
540005
540274
540540
540813
541088
541362
541631
541898
542091
542436
542694
542950
543219
543482
543742
544002
544266
544533
544796
545058
545325
545591
545850
546116
546380
546651
546911
547171
547444
547709
547966
548228
548492
548758
549023
549286
549559
549825
550084
550350
550537
550880
551148
551405
551678
551947
552205
552477
552650
553026
553299
553570
553851
554120
554386
554659
554926
555199
555461
555723
555991
556255
556508
556772
557033
557297
557559
557820
558083
558342
558530
558673
559043
559306
559574
559830
560086
560351
560611
560866
561129
561392
561657
561926
562194
562465
562729
562996
563261
563520
563784
563969
564310
564573
564842
565105
565365
565628
565889
566151
566413
566609
566935
567198
567450
567712
567970
568235
568496
568757
569025
569295
569558
569827
570097
570362
570636
570904
571173
571441
571703
571968
572228
572495
572760
573019
573282
573549
573809
574071
574334
574510
574864
575125
575386
575652
575915
576172
576428
576688
576953
577208
577464
577734
577995
578251
578516
578780
579043
579309
579574
579847
580116
580376
580642
580904
581175
581431
581686
581954
582214
582467
582733
582994
583257
583522
583699
584050
584312
584565
584822
585076
585333
585596
585847
586102
586367
586625
586877
587136
587396
587657
587919
588178
588442
588702
588952
589208
589466
589724
589985
590239
590495
590754
591007
591258
591509
591760
592014
592270
592517
592775
593027
593278
593530
593782
594037
594296
594545
594798
595060
595314
595569
595825
596081
596341
596602
596859
597122
597383
597641
597900
598158
598419
598682
598937
599190
599456
599711
599964
600219
600473
600735
600992
601247
601511
601766
602017
602274
602524
602781
603036
603286
603542
603801
604056
604310
604567
604822
605091
605352
605607
605873
606137
606390
606650
606910
607171
607424
607677
607943
608197
608445
608706
608962
609215
609477
609735
609997
610262
610520
610781
611038
611303
611568
611824
612083
612349
612608
612867
613125
613385
613648
613905
614162
614427
614689
614941
615198
615455
615715
615970
616226
616488
616745
616999
617261
617516
617766
618030
618285
618538
618796
619056
619304
619558
619816
620081
620335
620591
620851
621108
621361
621618
621870
622128
622390
622647
622904
623170
623437
623693
623958
624220
624487
624748
624922
625272
625532
625786
626048
626305
626563
626827
627086
627351
627614
627874
628135
628394
628656
628919
629174
629432
629695
629953
630209
630468
630724
630988
631247
631505
631775
632035
632287
632548
632803
633060
633315
633572
633834
634092
634350
634612
634868
635129
635398
635655
635920
636189
636455
636716
636977
637240
637505
637762
638022
638282
638538
638795
639050
639305
639571
639831
640088
640356
640621
640877
641137
641395
641660
641918
642178
642448
642707
642964
643229
643489
643749
644015
644274
644539
644802
645056
645312
645569
645827
646091
646340
646596
646858
647115
647368
647625
647880
648145
648406
648663
648933
649192
649444
649702
