277
555
830
1099
1363
1633
1903
2174
2442
2713
2982
3252
3525
3791
4062
4339
4609
4881
5159
5429
5701
5972
6249
6528
6797
7080
7356
7628
7905
8178
8452
8733
9004
9277
9556
9827
10096
10369
10637
10914
11185
11454
11732
12008
12278
12547
12822
13108
13382
13662
13945
14216
14492
14768
15041
15314
15586
15859
16133
16411
16681
16950
17225
17509
17785
18065
18347
18629
18910
19184
19464
19751
20020
20302
20584
20860
21142
21416
21695
21981
22260
22545
22821
23092
23376
23649
23925
24203
24477
24758
25038
25307
25587
25864
26143
26418
26692
26977
27249
27522
27797
28071
28349
28620
28889
29167
29440
29709
29982
30252
30533
30808
31078
31360
31638
31905
32180
32454
32733
33002
33275
33561
33837
34114
34390
34670
34952
35126
35510
35788
35960
36337
36611
36882
37163
37434
37714
37988
38260
38534
38807
39084
39363
39639
39921
40197
40477
40752
41028
41306
41588
41862
42139
42416
42688
42962
43237
43514
43797
44073
44355
44633
44907
45183
45457
45736
46015
46290
46575
46854
47130
47408
47684
47965
48246
48523
48797
49075
49346
49619
49893
50165
50438
50708
50992
51262
51529
51811
52077
52358
52638
52909
53192
53468
53637
54009
54283
54553
54825
55096
55372
55643
55910
56174
56457
56735
56923
57275
57553
57825
58089
58357
58623
58892
59158
59427
59702
59970
60233
60508
60774
61051
61325
61591
61869
62139
62403
62673
62942
63209
63479
63751
64026
64298
64564
64837
65107
65383
65656
65925
66205
66475
66742
67014
67283
67555
67829
68098
68376
68646
68913
69188
69455
69731
70006
70275
70555
70824
71095
71364
71632
71901
72178
72445
72713
72984
73253
73523
73786
74060
74334
74598
74765
75141
75412
75677
75946
76210
76482
76750
77012
77288
77554
77819
78085
78355
78625
78891
79157
79431
79698
79961
80233
80498
80763
81033
81298
81568
81838
82104
82372
82639
82907
83178
83443
83715
83984
84249
84518
84779
85047
85321
85586
85854
86127
86397
86663
86935
87203
87480
87748
88020
88296
88569
88839
89105
89379
89656
89926
90200
90478
90753
91026
91299
91573
91851
92124
92400
92674
92943
93216
93479
93745
94021
94287
94562
94745
95102
95378
95544
95915
96102
96464
96731
97003
97267
97539
97797
98066
98341
98605
98874
99147
99418
99696
99968
100247
100531
100808
101088
101371
101652
101927
102200
102480
102761
103034
103313
103592
103869
104147
104319
104688
104965
105234
105400
105768
106034
106294
106557
106816
107087
107350
107619
107900
108178
108456
108738
109018
109306
109583
109860
110147
110425
110694
110971
111244
111525
111800
112074
112356
112634
112908
113180
113452
113731
113999
114269
114543
114817
115080
115351
115628
115905
116178
116452
116731
117001
117277
117545
117810
118088
118351
118615
118888
119156
119419
119683
119948
120222
120489
120753
121024
121298
121565
121831
122100
122376
122641
122906
123181
123447
123708
123978
124244
124517
124783
125047
125324
125593
125776
126127
126394
126667
126931
127195
127468
127735
127999
128272
128542
128814
129089
129358
129635
129906
130175
130449
130716
130992
131268
131539
131816
132018
132351
132625
132895
133165
133438
133703
133981
134254
134522
134688
135059
135332
135605
135873
136144
136417
136684
136958
137222
137489
137768
138031
138298
138575
138844
139103
139371
139635
139908
140173
140440
140712
140891
141243
141514
141782
142058
142325
142593
142875
143150
143415
143689
143958
144234
144506
144772
145049
145313
145575
145841
146105
146372
146639
146903
147174
147442
147703
147977
148242
148510
148787
148977
149328
149600
149870
150054
150403
150676
150945
151213
151488
151760
152026
152299
152564
152742
153104
153369
153638
153818
154160
154428
154689
154952
155221
155484
155758
156036
156308
156499
156849
157114
157390
157655
157917
158184
158451
158712
158972
159237
159505
159763
160028
160299
160564
160825
161090
161351
161613
161881
162137
162404
162668
162928
163196
163461
163730
163997
164266
164535
164807
164988
165333
165595
165854
166122
166379
166635
166902
167165
167420
167684
167947
168128
168474
168739
169010
169271
169530
169732
170053
170313
170583
170835
171094
171360
171619
171877
172139
172403
172668
172932
173198
173388
173736
173998
174262
174523
174791
175055
175316
175582
175848
176109
176375
176554
176901
177174
177436
177706
177972
178238
178504
178694
179030
179303
179561
179821
180092
180351
180616
180880
181142
181331
181681
181946
182219
182489
182755
183025
183296
183479
183846
184119
184404
184589
184944
185217
185487
185763
186035
186307
186580
186854
187117
187382
187652
187926
188189
188453
188727
188993
189256
189523
189786
190060
190327
190505
190866
191134
191393
191659
191921
192190
192452
192713
192984
193250
193508
193780
194044
194307
194580
194845
195114
195384
195650
195841
196177
196450
196716
196979
197241
197510
197773
198037
198301
198564
198838
199104
199369
199552
199908
200170
200438
200702
200967
201231
201494
201763
202028
202294
202565
202832
203104
203379
203651
203832
204202
204476
204753
205024
205299
205483
205849
206131
206343
206682
206960
207232
207508
207785
208060
208346
208516
208891
209174
209451
209631
209998
210272
210550
210738
211087
211360
211628
211904
212170
212434
212710
212970
213231
213414
213758
214023
214288
214548
214816
215081
215338
215521
215865
216134
216402
216667
216936
217207
217474
217656
218026
218308
218508
218655
219046
219335
219618
219803
220171
220459
220745
220928
221310
221588
221860
222036
222407
222682
222957
223232
223515
223796
224076
224365
224647
224943
225227
225512
225805
226084
226360
226641
226908
227186
227454
227717
227994
228263
228527
228797
229068
229260
229615
229884
230162
230431
230693
230965
231231
231509
231784
232055
232342
232521
232896
233177
233459
233647
234020
234303
234586
234867
235140
235424
235702
235996
236273
236559
236852
237135
237415
237694
237970
238255
238533
238809
239085
239267
239633
239904
240181
240455
240726
241008
241280
241553
241831
242106
242387
242665
242845
243218
243492
243763
244038
244306
244485
244845
245112
245386
245654
245917
246187
246459
246732
247010
247282
247560
247837
248109
248382
248658
248836
249204
249476
249761
250030
250300
250577
250850
251130
251408
251584
251955
252231
252495
252766
253037
253309
253581
253854
254136
254416
254689
254973
255253
255545
255824
256105
256396
256680
256959
257241
257521
257806
258084
258369
258648
258929
259209
259485
259658
260044
260319
260596
260880
261154
261329
261700
261974
262257
262531
262810
262985
263361
263642
263917
264102
264475
264753
265035
265314
265589
265873
266155
266440
266732
267024
267318
267608
267900
268182
268472
268767
269047
269332
269620
269897
270178
270461
270740
271026
271306
271596
271880
272162
272447
272734
273030
273225
273589
273883
274161
274437
274714
274994
275279
275560
275847
276131
276408
276699
276980
277270
277552
277826
278122
278401
278675
278958
279239
279523
279802
280080
280361
280640
280916
281187
281467
281750
282019
282182
282570
282840
283116
283384
283652
283927
284201
284470
284744
285019
285294
285567
285847
286129
286403
286684
286964
287137
287518
287791
288065
288346
288626
288903
289187
289467
289746
290028
290311
290595
290874
291162
291444
291721
292005
292280
292564
292846
293127
293416
293699
293975
294264
294549
294837
295115
295395
295682
295967
296241
296517
296795
297078
297354
297633
297914
298195
298478
298757
298935
299275
299566
299747
300127
300407
300686
300960
301240
301522
301800
302090
302273
302644
302931
303209
303494
303773
304049
304336
304618
304896
305172
305454
305741
306018
306306
306594
306872
307160
307447
307730
308014
308298
308581
308865
309140
309416
309693
309978
310250
310521
310807
311080
311351
311629
311902
312180
312453
312724
312998
313272
313541
313809
314077
314355
314625
314889
315170
315444
315711
315991
316268
316549
316827
317103
317385
317664
317942
318214
318493
318780
319056
319334
319620
319900
320179
320460
320738
321024
321302
321582
321868
322143
322421
322696
322972
323251
323523
323800
324074
324349
324627
324899
325176
325455
325727
326007
326285
326554
326826
327101
327378
327655
327929
328212
328490
328763
329048
329323
329603
329883
330155
330444
330726
330999
331280
331560
331843
332119
332399
332682
332963
333245
333518
333797
334076
334349
334625
334902
335174
335447
335721
335996
336274
336551
336837
337121
337395
337687
337965
338250
338533
338807
339092
339375
339645
339919
340197
340481
340752
341032
341310
341585
341755
342128
342404
342680
342949
343217
343493
343760
343931
344287
344554
344828
345091
345358
345629
345899
346168
346438
346711
346989
347260
347531
347814
348083
348350
348623
348900
349176
349453
349726
350006
350283
350557
350831
351103
351381
351651
351918
352198
352465
352641
352996
353263
353534
353800
354065
354342
354614
354881
355150
355418
355691
355961
356224
356502
356770
357031
357305
357481
357842
358118
358386
358661
358933
359201
359472
359740
360012
360283
360548
360824
361091
361353
361626
361893
362168
362439
362708
362985
363260
363526
363800
364071
364345
364614
364882
365157
365424
365685
365959
366221
366493
366766
367034
367314
367584
367853
368126
368398
368671
368938
369207
369485
369756
370015
370289
370559
370835
371103
371369
371650
371923
372187
372463
372734
373009
373277
373545
373827
374094
374264
374632
374901
375172
375440
375707
375983
376255
376519
376793
377067
377339
377519
377881
378160
378424
378687
378960
379225
379495
379768
380036
380306
380579
380850
381117
381300
381655
381931
382196
382465
382735
383002
383269
383530
383798
384073
384340
384610
384891
385066
385436
385710
385981
386256
386524
386794
387068
387334
387599
387863
388132
388407
388674
388846
389221
389494
389760
390029
390295
390565
390833
391097
391372
391639
391907
392176
392446
392626
392992
393260
393536
393810
394076
394342
394615
394891
395160
395430
395709
395983
396249
396521
396793
397072
397334
397606
397883
398158
398427
398607
398961
399240
399509
399776
400044
400310
400576
400838
401103
401373
401634
401899
402170
402441
402703
402970
403236
403513
403783
404054
404332
404606
404880
405052
405424
405703
405971
406244
406524
406802
407072
407250
407608
407890
408161
408425
408701
408971
409233
409499
409771
409948
410309
410576
410852
411123
411390
411665
411932
412111
412477
412745
413021
413290
413553
413822
414089
414359
414628
414898
415174
415444
415712
415989
416257
416534
416811
417081
417360
417631
417897
418169
418438
418711
418982
419253
419528
419707
420062
420338
420602
420876
421149
421411
421684
421952
422211
422480
422749
423015
423282
423547
423824
424092
424358
424630
424897
425074
425439
425704
425973
426239
426499
426766
427034
427303
427576
427844
428126
428398
428668
428948
429217
429501
429779
429950
430327
430602
430868
431142
431410
431686
431953
432222
432498
432769
433038
433310
433580
433758
434125
434394
434672
434941
435201
435470
435736
436008
436274
436541
436817
436996
437353
437623
437888
438161
438430
438694
438970
439237
439500
439771
440039
440306
440578
440844
441114
441385
441652
441919
442180
442448
442721
442983
443247
443516
443781
444043
444310
444571
444842
445107
445372
445647
445916
446179
446443
446708
446977
447241
447501
447774
448036
448292
448562
448823
449089
449356
449623
449893
450161
450422
450687
450950
451213
451479
451738
452005
452265
452526
452791
453049
453311
453580
453844
454013
454375
454644
454906
455165
455429
455696
455954
456216
456480
456743
457000
457264
457527
457698
458055
458319
458587
458856
459116
459378
459639
459907
460171
460428
460702
460876
461223
461494
461757
462025
462290
462554
462825
462997
463349
463616
463878
464142
464406
464664
464933
465190
465455
465623
465980
466245
466510
466775
467037
467306
467576
467834
468096
468360
468628
468889
469148
469415
469677
469933
470201
470463
470734
471002
471266
471538
471806
472070
472332
472499
472858
473130
473391
473656
473921
474188
474458
474719
474988
475257
475525
475789
476065
476334
476596
476864
477132
477403
477669
477936
478209
478380
478739
479007
479273
479545
479810
480076
480353
480620
480882
481151
481422
481694
481962
482136
482494
482766
483028
483297
483563
483837
484105
484368
484647
484915
485175
485449
485719
485896
486256
486522
486793
487061
487322
487589
487852
488122
488384
488584
488920
489188
489449
489716
489985
490257
490520
490783
491052
491317
491576
491845
492103
492372
492639
492903
493179
493446
493709
493979
494246
494425
494782
495048
495320
495579
495841
496113
496371
496640
496913
497175
497446
497626
497980
498247
498513
498772
499047
499306
499568
499833
500094
500360
500620
500885
501154
501419
501683
501965
502228
502491
502763
503028
503297
503567
503835
504106
504377
504643
504913
505182
505453
505724
505989
506266
506532
506798
507067
507333
507598
507866
508129
508391
508655
508917
509178
509437
509701
509969
510234
510509
510784
511059
511333
511508
511873
512150
512414
512678
512949
513216
513483
513745
514015
514287
514552
514821
515093
515360
515628
515896
516162
516437
516703
516872
517236
517508
517776
518040
518309
518582
518850
519123
519396
519661
519931
520194
520457
520721
520975
521229
521494
521760
522016
522188
522535
522806
523063
523323
523593
523850
524101
524357
524613
524871
525127
525384
525643
525901
526157
526422
526674
526941
527208
527466
527733
527924
528257
528519
528776
529034
529296
529551
529809
530072
530333
530589
530850
531111
531376
531638
531901
532169
532432
532698
532962
533219
533480
533749
534007
534263
534529
534792
535051
535308
535571
535835
536092
536353
536622
536881
537137
537402
537662
537926
538183
538440
538701
538958
539218
539477
539734
539999
540268
540534
540808
541082
541358
541624
541891
542082
542431
542687
542944
543213
543477
543737
543995
544261
544529
544792
545054
545322
545588
545849
546113
546377
546647
546911
547168
547442
547707
547960
548223
548486
548751
549017
549280
549553
549819
550077
550344
550529
550872
551142
551399
551672
551941
552199
552471
552643
553020
553293
553565
553844
554114
554380
554654
554922
555194
555455
555717
555985
556249
556502
556766
557028
557291
557553
557814
558077
558336
558524
558663
559037
559301
559568
559825
560081
560344
560606
560860
561124
561387
561652
561921
562188
562460
562722
562990
563255
563514
563778
563960
564305
564568
564837
565100
565361
565624
565884
566144
566406
566599
566929
567192
567443
567705
567964
568228
568491
568752
569018
569290
569553
569821
570091
570355
570631
570899
571166
571434
571697
571961
572223
572489
572754
573013
573276
573544
573803
574066
574328
574501
574857
575119
575379
575646
575908
576166
576422
576681
576947
577203
577458
577728
577988
578245
578510
578775
579037
579303
579569
579844
580111
580370
580636
580898
581168
581423
581680
581948
582209
582462
582727
582989
583252
583518
583686
584045
584305
584559
584817
585069
585327
585588
585841
586096
586360
586619
586871
587130
587391
587654
587916
588174
588441
588704
588949
589207
589463
589722
589987
590240
590490
590751
591002
591253
591503
591752
592008
592264
592511
592768
593020
593272
593523
593775
594031
594290
594539
594792
595054
595308
595562
595818
596076
596334
596596
596854
597115
597377
597635
597894
598152
598414
598677
598931
599184
599450
599704
599957
600213
600467
600728
600985
601241
601505
601758
602011
602267
602517
602773
603029
603278
603535
603795
604049
604303
604560
604816
605084
605346
605601
605865
606130
606385
606637
606903
607164
607418
607671
607936
608191
608438
608700
608956
609209
609472
609730
609992
610256
610515
610776
611034
611298
611563
611818
612078
612344
612604
612861
613119
613379
613641
613899
614156
614420
614683
614934
615192
615448
615709
615963
616219
616482
616739
616993
617255
617509
617758
618023
618278
618530
618790
619050
619296
619551
619809
620075
620329
620585
620844
621103
621355
621611
621865
622122
622383
622641
622898
623165
623431
623687
623951
624215
624481
624741
624917
625266
625525
625780
626042
626299
626556
626821
627080
627344
627608
627868
628129
628388
628651
628914
629167
629425
629688
629945
630204
630462
630717
630981
631241
631499
631768
632028
632281
632542
632795
633052
633308
633565
633828
634085
634343
634603
634861
635122
635390
635648
635912
636183
636449
636709
636971
637233
637498
637755
638015
638273
638530
638788
639044
639298
639563
639826
640084
640351
640618
640873
641133
641390
641655
641913
642174
642444
642701
642960
643225
643485
643744
644010
644268
644532
644796
645049
645306
645563
645822
646085
646333
646590
646852
647109
647361
647619
647875
648139
648400
648658
648928
649185
649437
649697
