182
592
999
1402
1828
2242
2670
3098
3523
3952
4375
4793
5232
5660
6092
6543
6976
7424
7857
8314
8755
9202
9643
10072
10513
10922
11340
11752
12172
12616
13058
13495
13947
14381
14834
15270
15708
16144
16574
17016
17445
17885
18340
18768
19218
19660
20101
20536
20977
21413
21850
22291
22728
23165
23611
24040
24480
24896
25328
25749
26166
26606
27030
27463
27889
28331
28772
29196
29640
30044
30480
30903
31339
31780
32223
32677
33110
33557
33998
34443
34876
35322
35752
36178
36623
37061
37496
37937
38367
38796
39214
39653
40078
40510
40950
41384
41822
42246
42686
43110
43537
43962
44376
44805
45223
45656
46086
46516
46961
47391
47817
48254
48681
49127
49563
50000
50432
50855
51295
51714
52144
52571
52977
53409
53832
54261
54689
55119
55553
55980
56397
56819
57237
57654
58095
58529
58994
59438
59890
60334
60779
61232
61672
62126
62559
63005
63429
63862
64293
64709
65131
65559
65969
66393
66813
67243
67661
68087
68521
68930
69359
69786
70210
70650
71066
71502
71919
72352
72785
73207
73646
74074
74509
74946
75369
75795
76211
76628
77061
77468
77891
78312
78718
79137
79546
79962
80374
80788
81218
81635
82065
82487
82920
83343
83769
84198
84619
85035
85461
85872
86297
86717
87148
87585
88013
88460
88885
89327
89760
90185
90630
91056
91499
91925
92373
92810
93257
93689
94134
94566
94994
95431
95844
96276
96699
97123
97551
97968
98393
98812
99230
99663
100094
100528
100975
101407
101852
102273
102699
103130
103547
103976
104397
104824
105262
105689
106125
106548
106980
107407
107831
108258
108688
109111
109546
109965
110396
110814
111239
111666
112079
112505
112923
113344
113768
114190
114627
115046
115470
115890
116302
116720
117148
117561
117987
118402
118828
119251
119671
120100
120515
120944
121352
121766
122184
122593
123021
123436
123867
124290
124704
125126
125547
125964
126391
126814
127237
127657
128068
128494
128903
129320
129735
130142
130566
130983
131415
131845
132266
132696
133105
133525
133934
134349
134775
135194
135630
136059
136495
136935
137352
137782
138226
138653
139096
139523
139961
140402
140825
141272
141699
142131
142549
142968
143394
143810
144239
144665
145104
145542
145989
146428
146861
147297
147732
148149
148575
148994
149428
149868
150297
150749
151176
151617
152048
152480
152921
153351
153782
154227
154650
155080
155505
155925
156357
156770
157202
157621
158049
158487
158903
159337
159757
160190
160616
161045
161472
161881
162308
162727
163151
163575
163994
164415
164830
165239
165672
166089
166519
166950
167381
167809
168237
168673
169082
169504
169921
170333
170761
171181
171614
172030
172466
172888
173298
173721
174143
174578
175007
175444
175880
176295
176716
177127
177544
177955
178371
178792
179215
179646
180077
180505
180930
181373
181803
182246
182687
183134
183579
184021
184462
184888
185323
185754
186188
186615
187047
187472
187889
188311
188739
189144
189566
189971
190383
190796
191205
191633
192041
192467
192893
193304
193732
194152
194581
194998
195433
195858
196267
196693
197116
197551
197977
198414
198838
199272
199705
200134
200566
200999
201432
201864
202286
202717
203140
203564
203990
204409
204822
205242
205660
206071
206484
206904
207319
207743
208159
208598
209020
209454
209894
210327
210763
211184
211617
212048
212482
212928
213352
213793
214225
214673
215108
215542
215973
216392
216822
217249
217670
218106
218529
218961
219387
219817
220253
220668
221101
221519
221942
222369
222793
223232
223643
224083
224503
224921
225353
225783
226218
226641
227076
227520
227937
228365
228796
229216
229648
230077
230509
230948
231363
231784
232174
232578
232970
233362
233765
234161
234578
234974
235401
235824
236246
236673
237095
237527
237943
238379
238803
239228
239654
240080
240505
240916
241344
241753
242178
242593
243033
243460
243894
244334
244751
245186
245619
246045
246475
246898
247336
247754
248186
248615
249041
249468
249893
250325
250747
251171
251605
252028
252469
252891
253331
253748
254174
254593
255008
255438
255850
256268
256682
257083
257488
257874
258252
258622
258979
259335
259675
260016
260353
260680
261017
261323
261535
261891
262232
262571
262915
263262
263607
263964
264327
264691
265068
265457
265856
266267
266682
267116
267544
267981
268407
268842
269259
269688
270118
270533
270946
271338
271743
272112
272487
272866
273230
273614
273993
274386
274800
275210
275651
276076
276519
276951
277402
277830
278283
278713
279164
279596
280042
280477
280913
281354
281793
282235
282672
283118
283549
283992
284426
284860
285290
285718
286148
286558
286980
287387
287797
288207
288614
289038
289445
289875
290293
290728
291149
291577
292002
292432
292872
293299
293739
294158
294599
295021
295464
295895
296338
296768
297192
297623
298039
298462
298893
299311
299737
300158
300588
301013
301437
301860
302275
302691
303108
303523
303941
304356
304774
305187
305610
306030
306449
306873
307287
307706
308109
308526
308939
309371
309802
310231
310670
311089
311522
311945
312377
312814
313238
313676
314092
314530
314954
315380
315812
316227
316661
317089
317523
317955
318375
318802
319209
319626
320034
320450
320859
321284
321711
322126
322553
322987
323412
323845
324259
324679
325101
325522
325956
326368
326794
327210
327634
328063
328488
328910
329338
329779
330191
330620
331035
331459
331881
332292
332721
333131
333554
333968
334390
334816
335232
335662
336079
336498
336922
337330
337752
338168
338594
339017
339442
339879
340308
340744
341176
341608
342046
342476
342920
343341
343774
344200
344628
345054
345469
345893
346303
346724
347158
347570
348006
348421
348852
349273
349692
350114
350525
350956
351371
351800
352224
352646
353076
353487
353915
354331
354754
355178
355602
356028
356444
356872
357295
357710
358141
358557
358982
359413
359843
360274
360692
361134
361546
361968
362379
362801
363228
363648
364078
364467
364845
365218
365589
365958
366325
366699
367077
367467
367873
368307
368751
369199
369662
370098
370537
370976
371438
371875
372322
372760
373205
373642
374086
374533
374957
375397
375812
376234
376650
377061
377480
377878
378312
378739
379165
379613
380032
380468
380902
381345
381792
382224
382671
383122
383561
384020
384445
384883
385314
385766
386205
386656
387100
387541
387984
388423
388854
389289
389718
390154
390577
391010
391437
391867
392287
392711
393143
393555
393974
394397
394825
395248
395683
396112
396530
396957
397370
397784
398212
398629
399050
399458
399883
400316
400746
401195
401622
402060
402487
402930
403363
403808
404255
404685
405127
405552
405982
406401
406833
407259
407676
408100
408520
408942
409364
409790
410221
410639
411077
411510
411939
412372
412791
413221
413640
414055
414480
414884
415321
415739
416175
416598
417037
417482
417903
418346
418769
419197
419626
420050
420484
420897
421337
421757
422196
422629
423060
423487
423913
424337
424751
425170
425605
426023
426448
426870
427295
427715
428123
428549
428969
429380
429814
430227
430654
431065
431496
431927
432346
432785
433208
433643
434073
434510
434946
435375
435815
436230
436663
437086
437518
437942
438359
438782
439197
439616
440045
440462
440889
441301
441722
442142
442556
442989
443402
443834
444259
444693
445112
445542
445979
446408
446862
447287
447727
448152
448586
449022
449446
449880
450297
450727
451158
451590
452032
452461
452898
453325
453754
454196
454617
455045
455478
455915
456342
456778
457208
457633
458070
458482
458910
459330
459757
460187
460602
461035
461450
461863
462285
462690
463116
463536
463962
464401
464824
465255
465678
466102
466526
466954
467381
467799
468227
468654
469079
469511
469927
470351
470760
471182
471603
472020
472445
472858
473270
473680
474096
474522
474930
475363
475775
476201
476623
477060
477495
477913
478336
478749
479174
479597
480009
480433
480852
481271
481693
482107
482538
482962
483390
483827
484249
484676
485092
485525
485947
486384
486819
487247
487684
488099
488536
488945
489374
489797
490219
490648
491066
491492
491905
492332
492754
493162
493584
493994
494422
494843
495277
495710
496131
496560
496983
497404
497836
498254
498684
499106
499534
499964
500384
500818
501231
501646
502066
502480
502910
503315
503750
504167
504593
505022
505445
505873
506286
506720
507144
507566
507999
508419
508847
509268
509693
510118
510534
510958
511381
511798
512229
512642
513056
513466
513880
514305
514707
515136
515547
515967
516385
516810
517242
517659
518087
518503
518917
519336
519756
520177
520583
521015
521426
521854
522282
522707
523130
523553
523975
524395
524808
525237
525650
526068
526494
526902
527318
527723
528143
528563
528980
529409
529821
530240
530645
531062
531481
531887
532313
532721
533141
533547
533974
534396
534808
535237
535655
536081
536510
536924
537354
537770
538203
538624
539041
539467
539883
540300
540725
541146
541566
541975
542406
542821
543243
543664
544081
544501
544908
545340
545760
546176
546600
547016
547427
547856
548275
548714
549128
549562
549980
550412
550838
551269
551698
552119
552545
552954
553373
553796
554210
554621
555033
555455
555870
556288
556715
557133
557554
557970
558388
558796
559209
559632
560044
560466
560886
561303
561721
562133
562564
562972
563398
563813
564235
564647
565077
565504
565919
566353
566769
567193
567605
568027
568454
568876
569315
569730
570154
570563
570991
571420
571837
572268
572680
573105
573525
573945
574366
574775
575193
575593
576011
576426
576856
577266
577677
578079
578474
578869
579264
579663
580061
580472
580892
581323
581749
582188
582620
583053
583481
583911
584335
584749
585178
585600
586022
586460
586881
587312
587727
588154
588572
588999
589433
589849
590277
590694
591124
591550
591969
592396
592806
593231
593653
594077
594499
594918
595343
595753
596172
596598
597014
597439
597859
598281
598709
599128
599564
599976
600407
600826
601242
601663
602078
602505
602912
603342
603755
604171
604591
605000
605421
605822
606245
606661
607067
607489
607907
608327
608754
609169
609594
610007
610425
610860
611274
611705
612124
612540
612962
613373
613800
614214
614636
615059
615466
615892
616309
616732
617161
617584
618006
618417
618833
619257
619677
620111
620540
620974
621402
621825
622258
622668
623088
623519
623934
624366
624775
625204
625613
626034
626457
626859
627281
627696
628124
628554
628977
629408
629819
630246
630668
631098
631524
631955
632388
632806
633232
633658
634078
634500
634916
635338
635755
636177
636609
637018
637451
637862
638282
638698
639113
639541
639951
640371
640784
641190
641604
642012
642433
642841
643264
643685
644091
644505
644921
645336
645756
646163
646580
646989
647400
647821
648228
648651
649073
649496
649937
