179
589
994
1400
1825
2237
2667
3094
3519
3948
4371
4790
5230
5656
6089
6539
6973
7421
7854
8311
8751
9199
9638
10070
10510
10918
11338
11748
12169
12613
13053
13492
13943
14379
14833
15266
15706
16141
16572
17013
17441
17882
18336
18765
19216
19657
20098
20532
20974
21409
21847
22288
22725
23162
23607
24038
24477
24894
25326
25745
26164
26602
27027
27460
27885
28328
28767
29194
29636
30041
30478
30898
31337
31776
32221
32674
33108
33554
33995
34440
34872
35319
35748
36176
36618
37057
37493
37932
38365
38791
39211
39649
40074
40507
40945
41381
41818
42244
42683
43106
43534
43957
44374
44801
45220
45654
46082
46514
46958
47386
47815
48252
48680
49125
49560
49998
50427
50853
51291
51710
52141
52566
52975
53407
53828
54258
54686
55114
55550
55976
56394
56816
57233
57651
58091
58527
58991
59434
59887
60330
60777
61229
61670
62123
62556
63003
63425
63859
64290
64706
65129
65554
65967
66389
66810
67241
67657
68084
68517
68928
69357
69782
70208
70646
71063
71499
71914
72350
72780
73205
73642
74070
74506
74941
75367
75791
76207
76626
77056
77464
77888
78307
78715
79133
79541
79958
80369
80784
81214
81631
82061
82483
82918
83338
83767
84194
84615
85033
85456
85870
86294
86713
87146
87580
88011
88457
88882
89324
89755
90183
90627
91054
91495
91923
92370
92808
93255
93686
94132
94562
94992
95427
95841
96272
96694
97121
97547
97965
98391
98806
99227
99659
100091
100526
100970
101405
101850
102268
102697
103126
103543
103973
104392
104821
105257
105686
106122
106544
106978
107404
107828
108255
108684
109108
109542
109963
110394
110809
111237
111661
112076
112502
112919
113341
113763
114187
114624
115041
115467
115885
116298
116716
117142
117558
117982
118399
118825
119246
119668
120095
120511
120941
121348
121764
122179
122591
123018
123432
123865
124285
124700
125123
125543
125961
126388
126811
127233
127652
128065
128492
128900
129318
129731
130140
130563
130980
131413
131842
132264
132693
133102
133523
133929
134346
134771
135191
135627
136054
136493
136930
137349
137779
138221
138650
139093
139518
139958
140398
140821
141267
141696
142127
142543
142965
143390
143807
144236
144661
145101
145537
145986
146425
146857
147293
147728
148147
148571
148992
149425
149863
150294
150746
151171
151614
152044
152477
152919
153347
153780
154223
154648
155077
155500
155923
156353
156766
157198
157616
158046
158481
158900
159333
159753
160187
160612
161042
161467
161878
162305
162722
163148
163571
163991
164411
164826
165237
165668
166086
166516
166947
167378
167804
168234
168669
169079
169501
169917
170330
170757
171179
171610
172025
172463
172883
173295
173718
174139
174576
175001
175442
175875
176293
176711
177124
177541
177951
178368
178789
179212
179643
180073
180502
180927
181371
181799
182243
182683
183131
183574
184017
184458
184885
185321
185749
186185
186611
187044
187468
187885
188308
188734
189141
189562
189966
190380
190791
191202
191628
192037
192464
192887
193300
193727
194148
194577
194993
195429
195853
196263
196690
197112
197548
197972
198411
198833
199269
199701
200130
200562
200993
201429
201858
202283
202713
203136
203561
203984
204406
204817
205239
205657
206068
206481
206900
207317
207739
208157
208595
209016
209452
209890
210324
210759
211181
211614
212044
212480
212924
213349
213790
214223
214670
215103
215540
215969
216389
216819
217245
217668
218102
218528
218958
219382
219815
220248
220665
221097
221516
221940
222364
222791
223227
223640
224080
224499
224919
225349
225780
226214
226636
227073
227515
227933
228361
228790
229213
229644
230073
230505
230943
231360
231779
232171
232575
232965
233358
233760
234158
234572
234971
235397
235818
236242
236669
237091
237522
237940
238375
238798
239226
239649
240077
240500
240913
241340
241750
242174
242590
243031
243456
243891
244331
244748
245183
245615
246043
246471
246895
247332
247752
248184
248611
249038
249464
249891
250322
250744
251168
251601
252026
252465
252889
253327
253744
254171
254588
255004
255434
255846
256265
256677
257080
257484
257868
258249
258622
258978
259335
259677
260015
260350
260683
261015
261319
261534
261890
262232
262570
262915
263260
263606
263964
264326
264690
265068
265457
265856
266267
266682
267116
267544
267981
268407
268842
269258
269688
270117
270533
270945
271339
271743
272109
272487
272864
273229
273613
273991
274387
274798
275210
275649
276076
276519
276951
277402
277830
278283
278713
279163
279595
280042
280476
280913
281353
281793
282234
282672
283117
283549
283991
284425
284860
285289
285717
286148
286557
286979
287386
287797
288205
288614
289037
289445
289874
290292
290728
291148
291577
291999
292432
292871
293298
293738
294157
294599
295020
295464
295895
296338
296767
297192
297623
298038
298462
298893
299310
299737
300158
300588
301012
301437
301859
302274
302690
303107
303523
303941
304356
304774
305187
305610
306029
306448
306872
307287
307706
308109
308525
308938
309371
309801
310231
310669
311088
311522
311944
312377
312813
313238
313675
314091
314529
314953
315380
315812
316226
316661
317088
317523
317954
318375
318801
319209
319626
320032
320450
320858
321285
321710
322125
322552
322986
323412
323845
324259
324679
325099
325521
325955
326368
326793
327209
327634
328062
328488
328909
329338
329779
330191
330620
331034
331459
331880
332293
332721
333130
333554
333967
334391
334815
335231
335662
336078
336498
336922
337330
337752
338167
338594
339015
339441
339878
340307
340744
341175
341607
342045
342476
342919
343341
343774
344199
344628
345052
345468
345892
346302
346725
347157
347569
348005
348420
348852
349272
349692
350113
350525
350956
351370
351800
352223
352645
353075
353486
353914
354330
354754
355177
355602
356028
356443
356871
357294
357710
358140
358556
358982
359412
359842
360273
360692
361134
361545
361967
362378
362801
363227
363648
364078
364466
364845
365218
365589
365958
366325
366697
367077
367466
367873
368307
368750
369200
369661
370098
370536
370976
371438
371875
372321
372760
373205
373642
374086
374531
374957
375396
375811
376233
376647
377060
377477
377875
378312
378736
379165
379611
380030
380469
380899
381346
381792
382223
382671
383120
383560
384018
384444
384881
385313
385765
386204
386655
387099
387540
387983
388422
388854
389289
389718
390154
390576
391011
391437
391868
392287
392710
393142
393553
393974
394395
394824
395245
395683
396109
396530
396957
397368
397783
398210
398628
399048
399456
399883
400314
400746
401195
401621
402061
402485
402930
403361
403808
404254
404685
405126
405550
405981
406399
406833
407258
407676
408099
408519
408941
409362
409789
410221
410638
411077
411509
411939
412372
412791
413221
413639
414055
414478
414884
415320
415737
416175
416596
417037
417479
417902
418345
418767
419197
419624
420049
420482
420896
421337
421756
422197
422628
423060
423487
423912
424337
424749
425170
425604
426023
426448
426869
427295
427714
428123
428548
428967
429380
429813
430226
430654
431063
431496
431925
432345
432784
433207
433642
434071
434510
434944
435374
435814
436229
436662
437084
437517
437940
438358
438781
439196
439615
440043
440462
440888
441299
441722
442140
442556
442988
443402
443834
444258
444692
445110
445541
445977
446407
446860
447285
447727
448150
448587
449020
449446
449880
450296
450727
451156
451590
452030
452459
452897
453323
453753
454195
454616
455044
455479
455915
456341
456778
457206
457633
458069
458482
458910
459328
459756
460185
460601
461034
461448
461864
462284
462689
463116
463534
463962
464400
464823
465255
465677
466102
466525
466953
467379
467798
468226
468653
469078
469509
469927
470350
470758
471182
471602
472019
472444
472856
473270
473678
474096
474521
474931
475362
475774
476201
476621
477061
477494
477913
478336
478748
479173
479596
480008
480432
480851
481271
481693
482107
482537
482961
483389
483826
484249
484676
485092
485525
485947
486384
486818
487247
487683
488098
488535
488944
489374
489795
490218
490646
491065
491492
491904
492333
492752
493162
493584
493993
494424
494841
495278
495709
496130
496559
496982
497405
497835
498254
498684
499104
499534
499963
500383
500817
501230
501645
502064
502480
502909
503314
503750
504166
504593
505020
505445
505871
506285
506720
507142
507565
507998
508417
508847
509266
509693
510117
510534
510958
511380
511798
512227
512641
513055
513464
513879
514303
514707
515136
515546
515967
516384
516810
517241
517659
518087
518502
518917
519334
519757
520177
520583
521015
521426
521854
522282
522706
523129
523553
523975
524395
524808
525237
525649
526068
526492
526902
527318
527722
528143
528561
528980
529407
529820
530238
530642
531061
531479
531886
532312
532719
533140
533545
533974
534395
534807
535236
535653
536079
536509
536923
537353
537769
538203
538623
539041
539465
539882
540300
540723
541145
541565
541975
542406
542821
543244
543663
544082
544500
544908
545340
545758
546175
546600
547015
547427
547856
548275
548714
549127
549562
549980
550411
550836
551268
551697
552118
552544
552954
553373
553795
554209
554620
555033
555455
555869
556289
556714
557133
557553
557969
558387
558795
559209
559631
560044
560466
560885
561302
561720
562132
562563
562971
563398
563812
564235
564646
565077
565503
565920
566352
566768
567192
567604
568026
568452
568875
569314
569729
570154
570561
570991
571419
571836
572268
572679
573104
573524
573945
574365
574774
575192
575591
576011
576425
576857
577266
577676
578078
578473
578868
579263
579661
580060
580471
580892
581322
581748
582187
582620
583053
583480
583911
584334
584749
585178
585599
586021
586459
586881
587311
587726
588154
588571
588998
589432
589848
590277
590692
591124
591548
591968
592396
592805
593230
593651
594077
594497
594917
595342
595751
596171
596596
597013
597438
597858
598281
598707
599128
599562
599975
600407
600824
601242
601662
602078
602504
602911
603342
603754
604171
604590
605000
605421
605821
606245
606660
607067
607489
607906
608328
608753
609169
609594
610006
610425
610859
611274
611704
612123
612540
612960
613373
613799
614212
614636
615058
615465
615891
616308
616731
617160
617582
618006
618415
618832
619255
619676
620111
620538
620973
621400
621824
622257
622667
623088
623517
623933
624365
624774
625203
625611
626034
626455
626858
627280
627695
628124
628552
628977
629407
629817
630245
630667
631098
631522
631955
632387
632805
633232
633657
634078
634499
634917
635338
635754
636177
636607
637017
637450
637861
638282
638696
639113
639539
639951
640370
640783
641189
641603
642011
642433
642839
643264
643684
644090
644505
644919
645335
645754
646162
646579
646987
647399
647819
648226
648650
649071
649496
649928
