66
367
672
980
1283
1586
1880
2175
2475
2765
3049
3362
3673
3979
4281
4578
4882
5168
5461
5761
6056
6349
6642
6927
7212
7502
7791
8079
8373
8661
8964
9262
9560
9872
10174
10475
10786
11046
11378
11684
11988
12289
12590
12895
13197
13493
13785
14065
14355
14633
14911
15205
15493
15785
16086
16390
16699
17002
17310
17620
17932
18240
18544
18853
19153
19455
19759
20053
20358
20652
20954
21265
21564
21867
22173
22472
22774
23075
23370
23664
23966
24270
24563
24860
25168
25471
25773
26076
26372
26672
26973
27276
27574
27872
28174
28469
28766
29057
29347
29647
29944
30238
30536
30828
31118
31410
31703
31984
32269
32559
32849
33138
33426
33655
33981
34287
34577
34863
35148
35384
35699
35990
36276
36562
36841
37129
37417
37703
37929
38259
38504
38850
39145
39428
39711
39994
40283
40520
40824
41126
41413
41706
41997
42285
42581
42875
43172
43472
43764
44061
44347
44640
44934
45229
45521
45809
46111
46404
46694
46991
47282
47567
47859
48146
48428
48712
49008
49294
49587
49878
50177
50474
50775
51079
51379
51682
51987
52291
52589
52894
53199
53502
53809
54114
54420
54726
55034
55334
55638
55950
56250
56553
56862
57155
57459
57755
58047
58349
58635
58930
59228
59520
59814
60108
60391
60682
60909
61233
61527
61820
62106
62398
62688
62972
63267
63558
63847
64141
64439
64950
65274
65573
65867
66157
66444
66744
67034
67325
67624
67919
68211
68514
68818
69374
69695
70006
70318
70612
70910
71206
71505
71749
72101
72338
72717
73037
73348
73662
73968
74265
74575
74876
75168
75457
75756
76055
76354
76657
76955
77256
77558
77861
78162
78460
78767
79074
79377
79678
79979
80282
80592
80858
81188
81492
81796
82092
82384
82678
82973
83268
83559
83853
84141
84423
84710
85000
85291
85583
85872
86161
86454
86751
87032
87321
87617
87903
88202
88492
88788
89097
89395
89700
89997
90298
90609
90923
91221
91526
91835
92143
92459
92775
93089
93414
93736
94050
94353
94664
94959
95281
95575
95869
96160
96442
96739
97034
97322
97614
97910
98205
98509
98808
99022
99353
99659
99950
100239
100533
100755
101076
101382
101668
101956
102250
102483
102820
103141
103668
103995
104295
104585
104893
105185
105462
105778
106074
106372
106664
106956
107265
107561
107856
108153
108449
108738
109008
109296
109572
109811
110118
110408
110691
110975
111262
111493
111820
112122
112423
112714
113005
113311
113600
113892
114193
114486
114783
115080
115379
115678
115974
116276
116579
116881
117175
117478
117778
118066
118359
118653
118948
119252
119548
119846
120144
120453
120752
121044
121354
121652
121954
122255
122554
122854
123134
123423
123725
124011
124307
124603
124895
125191
125468
125691
126038
126350
126644
126935
127146
127469
127702
128045
128277
128616
128850
129196
129495
129789
129992
130315
130612
130905
131193
131471
131748
132022
132304
132577
132844
133121
133394
133662
133940
134219
134489
134766
135042
135309
135576
135838
136102
136366
136631
136896
137162
137428
137689
137961
138229
138496
138752
139024
139288
139549
139816
140087
140348
140613
140884
141148
141413
141648
141935
142194
142458
142715
142973
143227
143482
143735
143992
144243
144496
144745
144998
145250
145497
145753
146007
146255
146499
146752
147006
147254
147496
147742
147988
148230
148477
148724
148965
149207
149452
149699
149945
150189
150435
150675
150921
151163
151406
151645
151891
152132
152371
152607
152854
153095
153334
153572
153821
154059
154299
154545
154794
155037
155283
155528
155777
156022
156268
156508
156749
156995
157240
157481
157729
157977
158166
158450
158707
158961
159216
159466
159722
159973
160222
160476
160733
160982
161231
161480
161668
161944
162196
162443
162691
162940
163192
163447
163702
163959
164217
164472
164735
164996
165255
165511
165776
165946
166208
166523
166799
167061
167327
167594
167865
168129
168395
168659
168916
169181
169440
169702
169962
170217
170469
170736
170991
171256
171505
171769
172027
172286
172554
172818
173074
173328
173590
173845
174100
174350
174611
174857
175120
175375
175636
175886
176147
176405
176652
176935
177191
177451
177711
177880
178194
178499
178765
179029
179287
179553
179778
180071
180263
180598
180860
181121
181388
181647
181901
182159
182401
182674
182937
183191
183450
183709
183966
184165
184472
184733
184991
185247
185515
185775
186027
186280
186468
186753
187007
187266
187522
187768
188019
188268
188520
188769
189022
189269
189516
189763
190016
190263
190510
190759
190939
191219
191474
191724
191975
192220
192472
192718
192963
193213
193437
193712
193966
194230
194488
194748
195011
195279
195541
195807
196071
196338
196603
196874
197143
197416
197685
197955
198224
198495
198766
199040
199318
199594
199783
200088
200374
200569
200885
201158
201436
201710
201988
202267
202547
202830
203110
203395
203678
203959
204242
204415
204802
205083
205370
205647
205920
206203
206485
206764
207044
207329
207603
207882
208163
208438
208718
208989
209268
209545
209825
210097
210376
210653
210928
211210
211482
211748
212017
212292
212559
212825
213098
213368
213635
213910
214190
214462
214737
215015
215295
215578
215856
216135
216415
216694
216974
217173
217479
217756
218034
218313
218587
218852
219129
219404
219677
219954
220229
220500
220775
221057
221322
221602
221875
222151
222417
222691
222965
223239
223514
223785
224059
224335
224610
224887
225156
225433
225707
225993
226262
226454
226759
227045
227317
227586
227857
228119
228388
228662
228939
229210
229487
229764
230040
230325
230596
230871
231149
231419
231694
231979
232249
232518
232796
233073
233354
233617
233899
234182
234458
234744
234939
235248
235528
235812
236091
236370
236643
236925
237210
237494
237783
238068
238354
238640
238939
239223
239416
239734
240019
240306
240523
240871
241166
241466
241769
242066
242375
242677
242988
243306
243611
243926
244237
244538
244858
245166
245467
245778
246084
246383
246686
246986
247281
247579
247882
248181
248473
248776
249089
249402
249713
250036
250357
250670
250990
251309
251621
251939
252246
252556
252868
253163
253362
253709
254012
254321
254637
254945
255268
255592
255911
256225
256540
256860
257176
257484
257798
258110
258422
258740
259049
259357
259676
259979
260283
260590
260891
261113
261474
261775
262078
262385
262587
262915
263210
263414
263735
263960
264290
264579
264860
265135
265420
265698
265976
266248
266527
266802
267078
267363
267640
267806
268180
268452
268714
268987
269213
269500
269773
270045
270313
270581
270851
271115
271392
271666
271933
272194
272413
272713
272977
273246
273518
273780
273967
274273
274539
274806
275069
275339
275546
275852
276125
276395
276668
276936
277193
277461
277682
277974
278239
278495
278756
279014
279245
279533
279798
280065
280347
280617
280890
281169
281438
281716
282002
282289
282567
282851
283143
283432
283721
284004
284295
284581
284863
285154
285448
285730
286014
286313
286526
286836
287135
287433
287724
288016
288310
288600
288894
289192
289488
289793
290084
290380
290681
290975
291271
291562
291846
292067
292364
292649
292920
293204
293479
293757
294045
294329
294612
294897
295192
295477
295769
296056
296343
296639
296927
297221
297515
297804
298105
298401
298695
298992
299286
299579
300144
300467
300776
301088
301380
301666
301956
302240
302532
302820
303106
303393
303674
303960
304243
304521
304796
305075
305351
305574
306015
306320
306597
306884
307099
307393
307671
307952
308223
308495
308773
309046
309317
309531
309819
310098
310382
310655
311150
311454
311735
312015
312290
312558
312844
313115
313387
313665
313945
314158
314459
314760
315043
315332
315616
315900
316186
316470
316754
317033
317320
317602
317886
318174
318459
318751
319040
319333
319548
319918
320242
320551
320863
321162
321455
321756
322042
322331
322622
322905
323195
323494
323785
324078
324371
324666
324956
325246
325527
325820
326110
326403
326699
326987
327277
327568
327864
328155
328441
328733
329012
329303
329592
329877
330105
330544
330889
331196
331479
331773
332061
332342
332638
332921
333204
333491
333782
334070
334349
334641
334923
335207
335500
335785
336068
336355
336643
336930
337214
337492
337775
338062
338346
338633
338917
339191
339403
339705
339993
340262
340546
340820
341092
341376
341657
341929
342211
342497
342718
343151
343453
343734
344013
344286
344565
344837
345067
345370
345654
345855
346200
346486
346765
347043
347321
347599
347880
348160
348452
348729
349007
349292
349571
349855
350146
350432
350704
350935
351238
351527
351819
352094
352372
352649
352926
353212
353495
353768
354044
354285
354604
354895
355182
355457
355741
356025
356304
356582
356860
357139
357417
357704
357979
358261
358538
358815
359097
359274
359664
359949
360237
360518
360796
361077
361364
361647
361867
362182
362494
362796
363100
363395
363695
363992
364293
364590
364888
365190
365483
365775
366075
366635
366935
367244
367537
367828
368127
368417
368704
368992
369282
369572
369858
370147
370437
370724
371017
371309
371594
371879
372168
372453
372727
373006
373289
373567
373851
374142
374425
374709
375001
375293
375583
375874
376162
376448
376742
376954
377278
377579
377871
378168
378464
378748
379043
379576
379884
380187
380479
380771
381072
381357
381642
381932
382211
382497
382787
383078
383370
383665
383951
384258
384558
384855
385147
385443
385735
386030
386326
386612
386917
387209
387497
387796
388085
388374
388672
388964
389252
389530
389816
390100
390392
390679
390953
391234
391517
391803
392085
392373
392668
392956
393251
393540
393841
394134
394428
394736
395032
395323
395631
395932
396228
396518
396801
397093
397396
397691
397982
398271
398568
398861
399155
399363
399669
399976
400258
400563
400865
401160
401464
401777
402074
402366
402668
402961
403260
403561
403844
404133
404449
404748
405040
405342
405638
405937
406235
406527
406745
407067
407366
407675
407976
408268
408575
408870
409171
409481
410022
410336
410645
410953
411251
411553
411860
412163
412465
412768
413067
413371
413678
413979
414278
414585
414890
415192
415504
415799
416097
416410
416708
417002
417302
417594
417891
418191
418494
418788
419080
419380
419675
419960
420243
420543
420832
421115
421408
421695
421976
422260
422504
422813
423095
423388
423664
423946
424179
424480
424765
425036
425313
425587
425861
426133
426413
426695
426977
427271
427556
427840
428134
428421
428712
428994
429283
429566
429853
430140
430416
430646
430981
431279
431569
431853
432146
432440
432734
433032
433330
433625
433915
434222
434519
434815
435114
435410
435707
436010
436304
436595
436897
437201
437502
437808
438106
438410
438716
439018
439323
439624
439922
440229
440533
440821
441127
441426
441716
442026
442323
442609
442908
443207
443498
443784
444076
444362
444656
444950
445233
445517
445788
446085
446382
446662
446949
447234
447517
447723
448038
448323
448608
448911
449203
449493
449784
450081
450372
450671
450972
451268
451570
451873
452174
452483
452777
453084
453395
453700
454013
454322
454623
454939
455248
455555
455865
456174
456486
456802
457110
457422
457738
458049
458354
458653
458965
459267
459569
459882
460180
460475
460788
461087
461383
461691
461994
462293
462605
462911
463203
463506
463808
464096
464387
464688
464973
465268
465573
465864
466166
466469
466767
467066
467361
467663
467956
468249
468552
468843
469133
469434
469734
470027
470321
470627
470921
471221
471531
471829
472125
472433
472732
473034
473325
473623
473930
474231
474536
474845
475149
475461
475772
476079
476387
476699
477005
477321
477628
477933
478248
478563
478871
479179
479496
479804
480366
480684
480991
481290
481583
481875
482151
482439
482681
482993
483302
483601
483893
484199
484505
484799
485093
485401
485694
485990
486296
486592
486887
487185
487489
487788
488081
488388
488623
488982
489184
489575
489878
490193
490505
490809
491114
491426
491654
492022
492357
492678
492997
493319
493639
493950
494259
494568
494885
495198
495511
495823
496141
496461
496777
497002
497374
497707
497890
498347
498662
498975
499210
499574
499904
500229
500552
500873
501201
501524
501840
502161
502472
502783
503103
503326
503698
504039
504355
504674
505002
505315
505631
505942
506249
506562
506871
507094
507454
507760
508072
508384
508604
508946
509251
509558
509867
510087
510434
510740
511050
511356
511658
511962
512261
512482
512842
513148
513457
513684
514034
514349
514658
514886
515238
515557
515871
516180
516488
516803
517107
517408
517718
518025
518329
518648
518960
519267
519584
519897
520209
520521
520830
521141
521458
521778
522088
522402
522727
523039
523342
523654
523968
524275
524581
524891
525201
525508
525815
526121
526427
526737
527042
527358
527670
527971
528277
528587
528887
529188
529486
529792
530093
530390
530701
531005
531299
531613
531793
532204
532511
532813
533108
533406
533711
534010
534306
534615
534923
535225
535527
535838
536144
536451
536767
537072
537373
537685
537989
538286
538599
538908
539217
539533
539842
540158
540476
540789
541103
541410
541722
542035
542341
542655
542973
543277
543591
543903
544208
544524
544833
545135
545447
545753
546054
546369
546673
546977
547289
547591
547893
548197
548503
548806
549106
549415
549723
549937
550259
550572
550871
551181
551488
551786
552088
552398
552703
553000
553304
553604
553904
554205
554503
554800
555097
555390
555695
555987
556287
556591
556785
557082
557461
557772
558087
558394
558698
559004
559310
559605
559911
560219
560513
560814
561125
561430
561734
562036
562332
562626
562928
563222
563516
563799
564013
564333
564629
564920
565221
565518
565822
566137
566437
566740
567060
567370
567668
567976
568276
568577
568884
569183
569490
569802
570112
570431
570743
571055
571250
571668
571922
572289
572590
572903
573211
573512
573817
574124
574435
574744
575055
575363
575679
575992
576302
576612
576917
577226
577536
577848
578161
578467
578780
579088
579394
579697
580006
580306
580607
580911
581198
581495
581792
582076
582307
582620
582918
583206
583493
583778
584011
584324
584605
584883
585160
585416
585687
585950
586207
586467
586732
586988
587240
587497
587757
588003
588254
588499
588748
588991
589232
589478
589719
589962
590203
590442
590689
590932
591172
591410
591658
591904
592148
592394
592641
592888
593127
593373
593621
593864
594103
594345
594588
594827
595067
595315
595561
595802
596047
596292
596538
596781
597026
597268
597510
597752
597996
598237
598484
598729
598973
599215
599405
599684
599934
600176
600428
600675
600919
601168
601419
601664
601911
602161
602419
602660
602909
603153
603402
603650
603903
604159
604412
604660
604914
605168
605426
605676
605929
606176
606430
606678
606924
607180
607437
607686
607936
608196
608452
608707
608956
609218
609466
609720
609973
610229
610480
610737
610989
611246
611500
611755
612005
612199
612619
612882
613146
613406
613661
613913
614170
614426
614675
614925
615115
615392
615644
615899
616155
616349
616635
616891
617148
617404
617661
617914
618168
618421
618675
618930
619188
619440
619690
619938
620197
620446
620697
620945
621201
621451
621704
621955
622209
622453
622699
622946
623196
623442
623691
623937
624123
624407
624664
624917
625176
625430
625684
625938
626199
626458
626706
626964
627217
627405
627581
627838
628100
628348
628599
628857
629114
629368
629612
629866
630113
630364
630618
630876
631124
631376
631629
631884
632140
632396
632643
632900
633156
633411
633664
633921
634176
634427
634688
634949
635209
635462
635724
635984
636240
636502
636770
637024
637282
637472
637897
638166
638424
638680
638934
639192
639385
639667
639925
640179
640431
640625
640908
641165
641411
641668
641921
642169
642424
642683
642934
643187
643444
643707
643960
644217
644471
644726
644980
645242
645503
645760
646018
646242
646528
646790
647055
647308
647508
647795
648060
648322
648592
648784
649218
649420
649735
