70
373
678
985
1289
1593
1885
2180
2480
2771
3058
3368
3679
3983
4286
4584
4889
5175
5469
5767
6062
6355
6648
6933
7219
7510
7798
8087
8382
8669
8971
9270
9570
9879
10183
10484
10794
11035
11388
11693
11996
12299
12600
12903
13204
13500
13795
14075
14362
14642
14920
15214
15502
15795
16095
16398
16705
17011
17319
17628
17938
18247
18554
18860
19163
19465
19767
20060
20365
20660
20963
21272
21572
21874
22181
22479
22781
23081
23378
23673
23974
24277
24572
24868
25175
25478
25780
26083
26380
26679
26981
27283
27580
27877
28182
28474
28772
29065
29355
29653
29951
30246
30542
30835
31125
31417
31708
31991
32278
32566
32855
33146
33435
33662
33987
34296
34584
34870
35157
35391
35705
35998
36283
36567
36849
37136
37424
37711
37936
38265
38489
38855
39151
39435
39717
40001
40289
40526
40831
41131
41418
41712
42003
42292
42587
42881
43179
43477
43771
44066
44354
44647
44940
45236
45527
45815
46116
46411
46699
46996
47289
47574
47866
48153
48435
48720
49015
49302
49594
49886
50183
50481
50782
51086
51386
51688
51994
52298
52596
52901
53206
53508
53815
54123
54426
54733
55042
55342
55645
55955
56257
56560
56868
57164
57464
57763
58056
58355
58642
58937
59233
59527
59822
60115
60400
60690
60919
61240
61533
61829
62114
62404
62696
62981
63274
63565
63856
64150
64445
64959
65281
65580
65875
66165
66451
66751
67042
67333
67630
67926
68218
68522
68826
69381
69701
70014
70325
70619
70919
71214
71511
71758
72109
72348
72722
73043
73353
73668
73974
74274
74581
74881
75174
75464
75762
76062
76361
76662
76962
77262
77564
77867
78167
78465
78773
79080
79382
79685
79985
80287
80597
80846
81195
81497
81801
82096
82390
82685
82979
83273
83565
83860
84147
84431
84718
85007
85298
85591
85880
86168
86460
86758
87039
87326
87624
87910
88208
88499
88796
89102
89402
89706
90005
90305
90617
90928
91229
91535
91843
92152
92468
92785
93099
93423
93745
94060
94361
94671
94976
95288
95584
95876
96167
96453
96748
97043
97330
97623
97919
98214
98518
98814
99030
99359
99666
99957
100247
100540
100764
101081
101388
101675
101964
102258
102492
102828
103148
103674
104001
104301
104594
104899
105191
105469
105786
106080
106380
106671
106964
107273
107569
107863
108159
108455
108745
109018
109305
109581
109819
110127
110417
110699
110983
111271
111500
111829
112129
112430
112722
113013
113317
113608
113901
114200
114495
114791
115088
115386
115686
115983
116283
116585
116885
117182
117483
117784
118072
118366
118660
118953
119259
119556
119852
120150
120458
120760
121052
121361
121660
121962
122263
122560
122861
123142
123432
123735
124019
124314
124610
124899
125198
125477
125700
126046
126355
126653
126945
127158
127475
127710
128055
128288
128626
128858
129206
129505
129800
130003
130325
130621
130909
131195
131478
131750
132031
132311
132583
132851
133127
133397
133668
133947
134227
134499
134776
135051
135318
135587
135845
136112
136374
136641
136905
137172
137436
137699
137968
138238
138506
138760
139032
139295
139559
139826
140095
140358
140620
140892
141157
141422
141656
141946
142204
142467
142724
142983
143236
143491
143744
144000
144254
144507
144754
145007
145261
145507
145764
146016
146264
146508
146763
147017
147264
147506
147753
147999
148242
148488
148733
148976
149220
149464
149710
149956
150201
150447
150687
150932
151175
151418
151658
151903
152144
152381
152618
152866
153106
153346
153585
153834
154070
154311
154557
154807
155048
155295
155540
155790
156033
156278
156519
156762
157005
157251
157493
157740
157988
158178
158461
158720
158973
159228
159478
159732
159985
160233
160487
160744
160994
161242
161490
161679
161953
162206
162454
162702
162950
163202
163459
163712
163970
164228
164483
164748
165007
165265
165522
165787
165951
166219
166535
166810
167073
167339
167605
167876
168140
168406
168670
168928
169190
169451
169713
169971
170227
170479
170746
171002
171267
171516
171781
172039
172298
172564
172829
173083
173333
173599
173854
174111
174362
174621
174870
175129
175386
175648
175900
176158
176417
176666
176945
177205
177462
177723
177885
178203
178509
178776
179035
179292
179560
179788
180080
180268
180609
180868
181129
181394
181654
181907
182166
182413
182686
182951
183206
183464
183720
183978
184178
184486
184745
185004
185261
185527
185785
186039
186289
186478
186762
187017
187274
187531
187777
188028
188278
188529
188778
189029
189276
189524
189771
190023
190271
190517
190767
190948
191226
191484
191734
191982
192229
192482
192728
192973
193224
193449
193723
193977
194241
194499
194759
195022
195290
195552
195817
196081
196348
196613
196884
197153
197426
197695
197965
198233
198505
198775
199050
199328
199604
199794
200099
200384
200580
200896
201169
201446
201718
201998
202277
202557
202839
203119
203404
203689
203969
204252
204419
204812
205093
205379
205656
205929
206213
206495
206774
207053
207339
207614
207893
208174
208448
208727
209000
209278
209555
209834
210107
210386
210664
210938
211221
211493
211759
212027
212302
212571
212836
213109
213379
213646
213920
214201
214472
214747
215026
215306
215589
215867
216146
216426
216705
216985
217184
217490
217767
218044
218322
218598
218863
219140
219415
219687
219965
220240
220511
220786
221067
221333
221613
221886
222161
222428
222701
222977
223250
223524
223796
224070
224346
224620
224898
225168
225445
225719
226004
226274
226466
226771
227056
227327
227596
227868
228129
228400
228674
228949
229221
229499
229775
230050
230335
230608
230884
231160
231432
231705
231989
232261
232528
232808
233085
233365
233627
233910
234193
234470
234758
234952
235262
235540
235823
236103
236381
236654
236938
237222
237506
237795
238079
238365
238650
238950
239233
239429
239745
240030
240317
240534
240882
241177
241478
241780
242077
242386
242688
242998
243316
243622
243938
244246
244549
244868
245177
245477
245790
246096
246393
246697
246997
247291
247591
247894
248191
248484
248788
249101
249412
249724
250048
250367
250681
251003
251320
251633
251950
252257
252568
252877
253173
253374
253720
254023
254333
254648
254957
255280
255604
255921
256236
256553
256870
257188
257495
257809
258121
258434
258751
259061
259369
259686
259990
260295
260602
260902
261125
261485
261784
262089
262393
262598
262926
263221
263418
263737
263965
264294
264582
264869
265142
265429
265707
265985
266258
266540
266813
267088
267373
267648
267812
268188
268460
268726
268996
269224
269512
269782
270056
270322
270591
270859
271126
271400
271670
271938
272195
272418
272717
272981
273250
273519
273782
273972
274274
274542
274811
275072
275342
275547
275853
276128
276398
276668
276936
277196
277464
277686
277978
278243
278501
278762
279018
279251
279540
279805
280073
280354
280621
280897
281173
281444
281721
282008
282294
282572
282857
283148
283437
283727
284010
284299
284586
284870
285158
285453
285736
286019
286318
286533
286840
287142
287438
287730
288022
288316
288604
288900
289198
289494
289797
290090
290387
290687
290980
291278
291568
291852
292075
292371
292654
292927
293210
293485
293763
294050
294335
294617
294902
295198
295482
295774
296061
296348
296643
296932
297227
297519
297809
298111
298406
298699
298998
299293
299585
300149
300472
300783
301093
301385
301672
301963
302247
302537
302827
303112
303399
303681
303965
304248
304528
304800
305081
305358
305580
306020
306327
306604
306890
307105
307398
307679
307957
308230
308501
308779
309053
309323
309540
309825
310104
310387
310662
311156
311460
311739
312020
312297
312564
312848
313121
313394
313670
313953
314165
314465
314768
315050
315337
315622
315907
316191
316475
316760
317039
317325
317608
317892
318179
318464
318756
319045
319337
319555
319924
320247
320554
320868
321165
321459
321760
322047
322335
322626
322911
323201
323498
323790
324084
324375
324670
324962
325253
325533
325826
326115
326407
326704
326992
327281
327572
327869
328159
328445
328736
329016
329307
329597
329881
330110
330549
330893
331201
331482
331776
332065
332347
332643
332925
333209
333497
333786
334074
334354
334645
334927
335213
335504
335790
336074
336359
336648
336933
337218
337496
337779
338066
338351
338638
338922
339196
339410
339711
339998
340266
340551
340825
341098
341382
341662
341934
342216
342502
342724
343157
343460
343739
344019
344291
344570
344843
345072
345375
345660
345861
346206
346492
346770
347049
347328
347606
347885
348165
348459
348736
349014
349298
349577
349860
350150
350438
350712
350940
351246
351534
351824
352099
352379
352655
352932
353216
353500
353775
354050
354294
354607
354900
355188
355463
355745
356033
356310
356585
356866
357146
357423
357709
357983
358265
358545
358822
359102
359277
359669
359953
360242
360522
360801
361082
361368
361652
361873
362187
362499
362801
363104
363400
363700
363996
364298
364594
364891
365193
365487
365781
366079
366638
366938
367247
367540
367832
368132
368421
368706
368996
369287
369575
369864
370153
370441
370731
371021
371313
371600
371883
372173
372457
372732
373010
373293
373571
373854
374146
374429
374713
375007
375297
375589
375878
376168
376453
376746
376961
377282
377583
377876
378173
378468
378751
379048
379580
379889
380192
380483
380776
381078
381362
381647
381936
382216
382501
382793
383083
383373
383670
383959
384263
384563
384861
385151
385448
385739
386036
386331
386617
386920
387214
387501
387801
388091
388379
388675
388970
389257
389539
389824
390110
390397
390686
390960
391243
391524
391810
392092
392377
392673
392963
393258
393547
393845
394140
394434
394741
395037
395330
395637
395936
396233
396526
396808
397100
397399
397696
397988
398276
398573
398865
399160
399369
399672
399980
400264
400569
400871
401166
401469
401780
402078
402372
402673
402966
403263
403565
403851
404141
404452
404754
405045
405347
405644
405941
406236
406533
406754
407073
407372
407681
407980
408274
408580
408877
409178
409487
410028
410341
410652
410959
411256
411559
411867
412169
412471
412773
413074
413375
413683
413984
414284
414591
414896
415199
415508
415805
416104
416415
416714
417009
417307
417602
417897
418196
418500
418794
419086
419385
419680
419967
420251
420547
420837
421122
421415
421701
421983
422268
422511
422819
423104
423394
423670
423951
424184
424487
424771
425042
425320
425593
425868
426141
426419
426701
426984
427278
427564
427847
428141
428429
428718
429000
429291
429572
429860
430148
430425
430656
430989
431285
431575
431859
432152
432446
432740
433038
433335
433630
433922
434227
434526
434818
435118
435415
435712
436014
436309
436601
436902
437207
437508
437812
438112
438413
438721
439024
439327
439629
439928
440232
440538
440828
441130
441431
441722
442030
442328
442615
442913
443211
443504
443791
444083
444369
444661
444955
445238
445525
445797
446093
446387
446669
446957
447242
447525
447731
448044
448331
448616
448917
449208
449498
449791
450089
450376
450677
450979
451275
451575
451880
452180
452488
452784
453091
453401
453706
454018
454328
454630
454947
455254
455561
455872
456182
456491
456809
457117
457428
457742
458055
458361
458661
458969
459273
459576
459886
460186
460482
460794
461094
461391
461696
462000
462301
462612
462918
463211
463512
463815
464105
464393
464695
464982
465277
465580
465871
466174
466476
466775
467076
467369
467671
467966
468257
468559
468852
469143
469441
469741
470036
470328
470634
470930
471230
471539
471838
472134
472442
472738
473039
473333
473632
473937
474239
474545
474851
475156
475468
475779
476086
476394
476706
477012
477327
477635
477940
478253
478569
478878
479186
479501
479810
480371
480690
480996
481296
481586
481879
482155
482444
482685
482999
483306
483605
483899
484203
484510
484805
485099
485404
485700
485996
486301
486597
486893
487190
487494
487795
488088
488393
488630
488990
489189
489579
489886
490201
490511
490815
491122
491433
491662
492027
492362
492685
493004
493323
493645
493957
494266
494576
494890
495204
495518
495831
496147
496466
496784
497009
497381
497712
497896
498353
498668
498982
499218
499581
499909
500236
500557
500879
501208
501530
501845
502167
502480
502788
503109
503335
503704
504044
504361
504682
505008
505319
505637
505950
506255
506568
506878
507104
507460
507766
508080
508390
508610
508953
509260
509563
509874
510096
510440
510746
511058
511364
511664
511968
512269
512491
512847
513155
513465
513692
514040
514357
514664
514893
515246
515562
515877
516188
516493
516808
517114
517414
517724
518031
518336
518653
518967
519274
519589
519904
520217
520526
520836
521148
521463
521783
522094
522407
522730
523045
523349
523661
523972
524280
524588
524897
525206
525514
525823
526126
526433
526743
527049
527363
527676
527979
528283
528592
528893
529197
529492
529798
530100
530397
530706
531011
531306
531619
531797
532212
532518
532818
533115
533414
533716
534016
534314
534621
534930
535232
535534
535844
536152
536459
536773
537078
537380
537691
537996
538294
538605
538913
539224
539541
539850
540166
540485
540796
541110
541418
541728
542042
542349
542663
542980
543284
543600
543910
544215
544530
544839
545143
545456
545761
546062
546376
546679
546985
547295
547596
547901
548205
548507
548813
549113
549420
549729
549947
550265
550578
550877
551187
551493
551792
552095
552403
552709
553007
553310
553608
553910
554211
554507
554805
555104
555397
555701
555994
556292
556597
556790
557089
557466
557778
558090
558400
558704
559010
559315
559612
559915
560225
560520
560821
561131
561434
561740
562039
562337
562632
562934
563232
563523
563806
564022
564340
564634
564926
565226
565522
565828
566141
566442
566746
567065
567376
567674
567982
568280
568581
568890
569190
569495
569807
570119
570438
570748
571062
571255
571675
571914
572295
572596
572909
573216
573518
573824
574129
574441
574752
575063
575370
575684
575999
576309
576616
576924
577233
577544
577854
578168
578474
578786
579094
579399
579701
580010
580311
580610
580917
581204
581499
581797
582082
582313
582626
582923
583211
583496
583785
584016
584330
584609
584890
585168
585424
585696
585956
586216
586474
586740
586991
587248
587506
587767
588014
588262
588510
588764
589003
589245
589489
589731
589977
590213
590456
590702
590943
591183
591423
591669
591913
592159
592404
592652
592899
593139
593383
593633
593872
594113
594354
594596
594835
595078
595324
595570
595814
596060
596302
596548
596792
597035
597277
597520
597762
598005
598248
598494
598739
598984
599224
599414
599693
599944
600186
600439
600684
600931
601177
601429
601674
601921
602171
602429
602670
602918
603164
603413
603664
603915
604169
604421
604671
604924
605177
605436
605688
605940
606185
606442
606690
606935
607193
607447
607698
607947
608209
608464
608720
608969
609225
609477
609731
609983
610241
610489
610749
610998
611255
611511
611765
612014
612212
612631
612894
613159
613419
613674
613924
614183
614437
614686
614936
615128
615404
615655
615910
616167
616360
616646
616902
617160
617417
617674
617926
618181
618434
618690
618941
619201
619454
619704
619950
620210
620458
620710
620957
621214
621462
621721
621970
622221
622465
622714
622960
623211
623454
623705
623951
624137
624421
624677
624929
625189
625442
625696
625952
626213
626472
626718
626976
627230
627416
627593
627849
628113
628359
628611
628871
629127
629377
629624
629879
630125
630377
630630
630888
631137
631388
631640
631897
632151
632407
632656
632913
633168
633422
633675
633933
634189
634439
634700
634959
635220
635472
635735
635995
636251
636513
636779
637035
637292
637485
637908
638176
638435
638689
638944
639203
639397
639678
639936
640189
640442
640636
640918
641175
641421
641679
641932
642180
642435
642695
642945
643198
643456
643720
643972
644228
644481
644737
644992
645254
645514
645773
646030
646254
646540
646802
647068
647322
647520
647807
648072
648332
648604
648795
649228
649430
649746
