309
503
977
1315
1651
1971
2295
2486
2956
3297
3613
3923
4258
4446
4906
5239
5552
5883
6210
6521
6865
7200
7513
7710
8178
8376
8860
9052
9531
9735
10194
10407
10867
11065
11545
11863
12187
12502
12804
13001
13463
13655
14121
14325
14788
14982
15451
15768
16080
16405
16720
16908
17391
17723
17915
18388
18727
18922
19403
19614
20105
20438
20630
21102
21296
21764
21971
22411
22744
23063
23382
23723
24054
24407
24748
25071
25263
25756
26072
26403
26730
27047
27368
27697
27881
28372
28720
29056
29376
29706
29909
30386
30574
31067
31260
31728
32064
32375
32698
33026
33344
33667
34002
34329
34658
34996
35339
35667
36016
36354
36685
37028
37356
37681
38028
38352
38675
39015
39340
39658
39985
40299
40627
40952
41278
41608
41937
42125
42595
42927
43249
43562
43881
44206
44517
44835
45029
45492
45832
46160
46482
46814
47133
47326
47796
47990
48463
48693
49149
49490
49807
50005
50468
50796
50986
51460
51788
52115
52434
52748
52943
53407
53752
54080
54396
54727
55047
55368
55699
56019
56338
56673
56987
57176
57653
57973
58157
58624
58944
59136
59592
59792
60258
60571
60754
61209
61517
61846
62174
62493
62689
63195
63520
63718
64213
64569
64762
65250
65587
65777
66253
66587
66783
67262
67459
67935
68266
68456
68915
69119
69584
69789
70250
70475
70931
71123
71598
71798
72267
72605
72928
73250
73595
73923
74114
74595
74796
75281
75613
75933
76130
76611
76809
77287
77484
77956
78292
78606
78942
79275
79590
79925
80263
80602
80941
81287
81635
81821
82299
82641
82961
83152
83630
83825
84306
84635
84940
85140
85603
85800
86271
86588
86783
87253
87573
87771
88238
88575
88770
89241
89498
89948
90266
90460
90937
91286
91607
91920
92263
92450
92920
93264
93593
93920
94243
94430
94909
95247
95567
95882
96207
96401
96879
97215
97552
97873
98065
98534
98726
99202
99532
99848
100039
100512
100833
101152
101343
101813
102008
102472
102678
103150
103469
103660
104112
104427
104623
105067
105384
105593
106032
106222
106700
106894
107363
107571
108026
108363
108555
109015
109341
109532
109996
110318
110508
110974
111301
111491
111954
112280
112472
112937
113129
113599
113909
114211
114525
114829
115150
115478
115788
115978
116458
116653
117117
117442
117752
117947
118412
118730
118931
119391
119707
119901
120355
120675
120870
121310
121638
121827
122267
122585
122775
123229
123558
123877
124191
124384
124838
125033
125485
125805
126113
126424
126740
127048
127365
127685
127992
128311
128646
128958
129277
129609
129921
130109
130571
130766
131233
131559
131866
132069
132529
132726
133185
133500
133689
134148
134463
134649
135109
135425
135612
136068
136388
136584
137046
137363
137563
138027
138335
138524
138975
139294
139610
139932
140264
140588
140916
141240
141564
141900
142094
142564
142911
143230
143536
143865
144175
144496
144824
145135
145458
145792
146108
146424
146755
147075
147403
147726
148041
148367
148689
148997
149318
149646
149967
150280
150605
150932
151235
151549
151739
152194
152534
152858
153167
153492
153689
154155
154491
154802
155125
155457
155769
156101
156440
156761
156947
157425
157752
157950
158425
158749
158949
159428
159745
159938
160392
160716
160909
161355
161556
162017
162335
162639
162832
163306
163625
163951
164292
164611
164932
165266
165585
165778
166258
166453
166930
167268
167579
167778
168244
168441
168915
169112
169583
169918
170222
170541
170864
171055
171528
171866
172201
172518
172839
173035
173504
173854
174181
174498
174836
175151
175469
175807
176120
176443
176783
177108
177431
177766
178087
178404
178728
179053
179377
179697
180015
180336
180660
180975
181287
181613
181936
182252
182577
182899
183224
183551
183873
184192
184526
184848
185172
185505
185822
186146
186470
186784
187104
187439
187764
188078
188419
188753
189064
189395
189716
190036
190363
190681
191005
191334
191651
191969
192294
192617
192943
193267
193591
193908
194221
194530
194840
195155
195475
195784
196111
196310
196775
197116
197441
197757
198094
198281
198754
199104
199436
199758
200087
200276
200760
201104
201431
201757
202085
202269
202745
203089
203415
203724
204051
204368
204561
205038
205362
205553
206045
206375
206565
207049
207385
207571
208043
208379
208575
209044
209379
209574
210043
210243
210719
211040
211238
211695
212028
212227
212686
213005
213191
213650
213847
214312
214622
214821
215270
215580
215775
216253
216592
216781
217260
217593
217925
218244
218565
218890
219219
219536
219735
220209
220535
220728
221194
221388
221864
222184
222491
222811
223130
223444
223772
223958
224430
224780
225094
225405
225742
225929
226403
226755
227082
227408
227742
227929
228418
228765
229084
229397
229724
230054
230366
230697
231028
231341
231668
231991
232311
232648
232966
233284
233624
233937
234125
234597
234920
235113
235584
235908
236234
236558
236864
237183
237513
237838
238152
238485
238812
239138
239467
239792
240117
240457
240777
240970
241459
241788
241986
242450
242777
242968
243447
243764
244097
244414
244721
244916
245391
245718
245913
246385
246707
247030
247347
247666
247856
248320
248650
248842
249307
249648
249976
250283
250600
250924
251240
251557
251881
252203
252527
252843
253164
253479
253810
254135
254444
254776
254962
255432
255774
256090
256416
256748
256935
257411
257754
258069
258384
258698
258889
259358
259689
260010
260329
260659
260840
261322
261670
262001
262327
262665
262987
263176
263658
263984
264174
264658
264985
265174
265654
265853
266344
266668
267002
267340
267655
267844
268324
268519
268993
269324
269638
269831
270303
270496
270977
271316
271627
271952
272283
272604
272794
273267
273597
273790
274261
274585
274777
275250
275580
275766
276241
276442
276917
277110
277575
277909
278218
278409
278882
279214
279399
279878
280204
280396
280876
281200
281395
281862
282187
282379
282839
283035
283499
283696
284165
284399
284847
285192
285515
285839
286166
286352
286834
287180
287502
287824
288158
288487
288802
289129
289457
289785
290108
290427
290744
291078
291386
291701
292035
292349
292662
292992
293302
293626
293957
294139
294611
294954
295272
295598
295921
296239
296435
296920
297112
297595
297934
298252
298440
298924
299122
299596
299932
300256
300447
300923
301264
301453
301938
302134
302611
302938
303255
303573
303886
304199
304533
304858
305179
305526
305860
306181
306520
306844
307175
307503
307818
308014
308499
308822
309153
309484
309808
310126
310445
310769
311080
311392
311706
312020
312350
312665
312855
313328
313656
313848
314320
314639
314973
315300
315610
315938
316267
316574
316903
317233
317559
317882
318212
318402
318883
319222
319558
319876
320209
320401
320871
321221
321545
321863
322201
322520
322844
323181
323497
323683
324176
324370
324847
325178
325496
325694
326162
326491
326817
327013
327478
327810
328137
328458
328656
329130
329455
329787
330113
330443
330761
331096
331423
331735
331940
332412
332730
333045
333363
333682
333990
334313
334499
334977
335318
335653
335968
336307
336639
336958
337295
337622
337941
338281
338612
338942
339287
339613
339949
340281
340594
340787
341262
341594
341795
342259
342595
342784
343245
343577
343768
344236
344573
344765
345236
345563
345755
346210
346527
346717
347186
347500
347688
348153
348357
348820
349013
349473
349806
350117
350424
350744
350940
351396
351730
352049
352367
352559
353031
353235
353705
354042
354355
354545
355015
355208
355672
356002
356314
356638
356963
357277
357614
357930
358121
358610
358816
359288
359625
359939
360266
360588
360905
361230
361561
361874
362191
362517
362835
363154
363476
363797
364121
364446
364766
365081
365409
365736
366051
366385
366578
367046
367382
367701
368010
368199
368664
368861
369333
369673
369989
370307
370642
370973
371297
371622
371951
372272
372595
372915
373232
373571
373896
374213
374561
374899
375217
375559
375890
376078
376564
376752
377237
377586
377894
378210
378528
378845
379159
379480
379804
380121
380442
380760
381081
381412
381737
382063
382404
382730
382923
383411
383608
384109
384311
384807
385166
385505
385843
386180
386514
386861
387201
387544
387745
388238
388593
388778
389274
389477
389964
390154
390649
390990
391320
391508
392000
392344
392674
393018
393355
393687
393881
394365
394558
395057
395250
395733
396094
396424
396744
397068
397409
397734
398053
398244
398732
398920
399394
399591
400070
400407
400600
401071
401385
401675
401965
402157
402514
402706
403036
403229
403539
403802
404049
404238
404678
404978
405285
405596
405899
406085
406561
406872
407182
407506
407695
408172
408361
408829
409037
409503
409693
410161
410350
410811
411119
411407
411716
412021
412217
412666
412858
413313
413512
413952
414263
414558
414851
415039
415458
415648
416068
416281
416667
416859
417278
417490
417863
418135
418405
418686
418978
419164
419610
419937
420245
420565
420878
421065
421523
421845
422031
422482
422798
422978
423419
423730
423917
424345
424649
424845
425272
425470
425897
426095
426527
426724
427142
427331
427754
428052
428339
428626
428817
429249
429446
429863
430166
430460
430761
430948
431381
431675
431977
432272
432460
432878
433066
433476
433765
433955
434335
434622
434891
435094
435460
435735
436011
436201
436552
436820
437013
437372
437589
437852
438132
438400
438582
438990
439286
439469
439933
440255
440441
440952
441306
441486
442007
442355
442700
443033
443367
443564
444063
444256
444743
444937
445424
445619
446086
446409
446734
447052
447365
447562
448033
448367
448553
449028
449222
449691
450007
450195
450667
450987
451305
451500
451970
452154
452622
452814
453301
453629
453964
454159
454643
454976
455307
455497
455987
456181
456659
456995
457186
457665
457858
458342
458683
458866
459354
459696
459885
460353
460687
460878
461346
461683
461869
462341
462540
462981
463171
463625
463937
464248
464573
464914
465105
465624
465823
466353
466569
467064
467259
467779
467963
468443
468637
469111
469310
469781
470107
470439
470627
471104
471297
471806
472139
472472
472803
473137
473323
473815
474159
474354
474846
475187
475534
475721
476198
476390
476876
477077
477558
477902
478240
478434
478913
479109
479598
479798
480273
480467
480957
481153
481626
481819
482291
482492
482947
483142
483588
483887
484185
484464
484752
485054
485349
485643
485966
486287
486601
486938
487279
487613
487958
488311
488661
489007
489196
489709
489908
490399
490590
491055
491266
491722
492038
492227
492663
492979
493171
493599
493796
494243
494539
494849
495164
495485
495816
496008
496482
496678
497155
497350
497823
498018
498497
498691
499160
499488
499678
500117
500316
500747
501051
501348
501532
501967
502162
502582
502894
503080
503537
503860
504048
504522
504716
505187
505383
505894
506089
506594
506949
507146
507637
507992
508180
508675
508879
509370
509713
509904
510390
510732
511062
511250
511736
511934
512422
512760
513088
513286
513765
513966
514461
514792
514986
515476
515819
516152
516476
516667
517167
517506
517859
518192
518521
518720
519203
519405
519893
520225
520423
520892
521215
521532
521722
522188
522380
522815
523134
523325
523758
523958
524405
524726
525048
525236
525734
525931
526410
526614
527082
527416
527606
528057
528383
528570
529015
529338
529527
529995
530321
530511
530978
531298
531492
531938
532130
532590
532789
533236
533548
533863
534185
534517
534706
535197
535399
535896
536085
536572
536780
537245
537461
537911
538107
538565
538763
539223
539536
539849
540157
540476
540800
541127
541472
541814
542151
542503
542851
543202
543559
543897
544253
544600
544933
545274
545619
545971
546160
546667
546868
547358
547561
548044
548249
548723
548927
549383
549712
549903
550358
550678
550994
551190
551632
551833
552256
552450
552828
553107
553295
553637
553908
554168
554424
554685
554949
555144
555483
555764
555952
556319
556518
556892
557166
557435
557633
558017
558229
558608
558898
559205
559400
559826
560143
560467
560662
561142
561495
561836
562172
562365
562886
563229
563564
563757
564252
564587
564926
565251
565587
565924
566229
566536
566722
567133
567329
567775
568085
568388
568592
569032
569228
569685
569998
570316
570504
570958
571156
571568
571856
572145
572337
572747
573033
573321
573602
573793
574184
574388
574783
575080
575370
575563
575966
576261
576560
576871
577176
577364
577855
578048
578546
578873
579064
579540
579877
580062
580568
580937
581129
581647
581848
582355
582717
582911
583427
583620
584146
584490
584823
585163
585495
585823
586017
586523
586716
587190
587541
587862
588171
588366
588819
589009
589470
589790
590090
590388
590712
590905
591379
591723
592050
592369
592692
593018
593337
593683
594024
594352
594697
595058
595405
595734
595936
596431
596764
596955
597439
597763
598083
598411
598742
599089
599290
599792
600144
600500
600842
601195
601388
601912
602118
602640
602983
603166
603677
604019
604362
604685
605008
605217
605696
606023
606213
606691
607020
607347
607664
607975
608292
608618
608937
609255
609605
609933
610248
610445
610925
611112
611591
611933
612261
612574
612760
613234
613432
613890
614096
614561
614896
615225
615426
615924
616274
616471
616977
617322
617519
618019
618368
618709
619053
619389
619723
620089
620432
620777
621138
621489
621828
622172
622523
622866
623195
623548
623893
624217
624549
624888
625227
625568
625909
626251
626577
626921
627262
627586
627929
628270
628601
628939
629280
629606
629938
630278
630619
630950
631281
631612
631940
632276
632608
632933
633127
633609
633806
634289
634638
634957
635270
635592
635907
636214
636524
636845
637160
637467
637797
638116
638431
638628
639101
639433
639760
640097
640429
640756
640955
641451
641792
642129
642482
642820
643159
643504
643857
644194
644526
644881
645228
645557
645753
646226
646557
646881
647198
647520
647838
648155
648479
648792
649130
649469
649788
