156
507
866
1209
1561
1915
2274
2635
3005
3373
3733
4105
4455
4812
5180
5535
5893
6257
6618
6977
7335
7691
8040
8389
8740
9095
9444
9790
10153
10504
10851
11215
11570
11927
12288
12648
13013
13388
13756
14133
14507
14881
15258
15628
15999
16375
16736
17104
17472
17830
18181
18531
18879
19236
19591
19945
20312
20674
21041
21413
21771
22144
22510
22869
23233
23595
23953
24306
24652
24997
25354
25709
26060
26426
26784
27136
27503
27866
28231
28600
28963
29333
29708
30081
30450
30825
31191
31572
31942
32307
32681
33053
33414
33775
34143
34513
34880
35245
35617
35985
36349
36716
37084
37455
37832
38203
38576
38948
39307
39667
40021
40377
40734
41083
41431
41797
42152
42501
42856
43205
43560
43916
44272
44632
44998
45360
45707
46063
46416
46772
47119
47465
47809
48152
48486
48826
49167
49510
49862
50210
50560
50914
51248
51591
51934
52271
52595
52932
53270
53615
53974
54333
54692
55058
55418
55772
56135
56482
56676
56831
57185
57534
57878
58221
58570
58917
59274
59616
59965
60316
60658
60999
61341
61684
62021
62375
62715
63056
63384
63723
64050
64380
64710
65042
65383
65724
66066
66413
66762
67106
67446
67789
68136
68470
68808
69160
69510
69849
70197
70545
70904
71272
71616
71972
72344
72708
73070
73445
73817
74192
74560
74919
75292
75660
76016
76382
76743
77101
77466
77811
78158
78516
78865
79209
79561
79907
80253
80605
80952
81302
81642
81986
82332
82679
83030
83381
83732
84076
84429
84776
85130
85479
85824
86160
86497
86843
87183
87529
87865
88210
88555
88901
89258
89614
89970
90331
90700
91059
91407
91761
92112
92456
92804
93151
93501
93859
94210
94560
94913
95271
95637
95998
96353
96720
97089
97456
97827
98191
98558
98931
99290
99656
100022
100386
100748
101113
101479
101852
102221
102594
102975
103351
103721
104093
104464
104833
105191
105556
105925
106283
106639
107001
107358
107715
108076
108433
108785
109144
109503
109857
110219
110580
110950
111315
111674
112048
112414
112779
113146
113514
113886
114254
114616
114985
115349
115704
116067
116419
116766
117127
117471
117817
118169
118513
118866
119225
119594
119969
120336
120704
121080
121452
121821
122188
122554
122914
123278
123636
124001
124373
124735
125084
125442
125792
126151
126511
126871
127243
127613
127982
128357
128717
129089
129470
129846
130212
130588
130960
131325
131683
132049
132418
132774
133129
133499
133858
134216
134583
134939
135303
135667
136029
136391
136752
137113
137463
137818
138166
138531
138888
139241
139602
139952
140298
140646
140993
141340
141689
142019
142346
142686
143013
143330
143654
143963
144270
144583
144890
145203
145520
145842
146170
146492
146818
147139
147459
147783
148097
148408
148727
149041
149350
149664
149981
150304
150629
150958
151296
151641
151980
152312
152651
152985
153329
153677
154022
154368
154714
155062
155403
155746
156083
156418
156760
157097
157434
157785
158129
158475
158824
159180
159540
159906
160263
160606
160962
161311
161649
161999
162348
162703
163056
163401
163737
164088
164430
164761
165106
165442
165783
166132
166476
166830
167191
167550
167897
168252
168608
168957
169309
169656
170014
170373
170728
171075
171429
171786
172145
172486
172829
173180
173516
173847
174180
174507
174846
175198
175542
175891
176252
176604
176944
177296
177640
177975
178313
178652
179000
179361
179720
180084
180450
180817
181174
181543
181906
182270
182632
182984
183334
183679
184026
184378
184722
185062
185412
185758
186103
186453
186805
187157
187520
187879
188232
188604
188965
189305
189656
190010
190368
190725
191074
191433
191790
192145
192496
192853
193213
193583
193936
194290
194656
195012
195360
195716
196068
196432
196793
197158
197527
197900
198263
198628
198992
199357
199724
200085
200447
200816
201183
201542
201907
202261
202615
202972
203332
203699
204066
204430
204802
205168
205533
205896
206257
206625
206994
207361
207717
208079
208439
208810
209172
209539
209917
210292
210666
211051
211427
211814
212198
212575
212963
213340
213712
214086
214467
214851
215225
215595
215969
216330
216691
217056
217415
217775
218150
218520
218891
219276
219653
220023
220401
220781
221164
221534
221910
222293
222671
223046
223422
223805
224189
224556
224921
225299
225660
226021
226391
226750
227120
227493
227857
228234
228611
228977
229353
229718
230086
230463
230830
231201
231576
231943
232313
232679
233038
233407
233762
234125
234497
234865
235226
235584
235943
236309
236674
237035
237398
237762
238121
238486
238851
239224
239598
239970
240348
240724
241100
241469
241843
242217
242581
242957
243332
243700
244076
244444
244810
245185
245556
245919
246272
246643
247004
247351
247714
248076
248433
248797
249148
249512
249875
250229
250587
250955
251318
251690
252043
252406
252772
253135
253486
253846
254203
254567
254923
255098
255281
255642
255998
256358
256721
257082
257437
257799
258161
258530
258909
259283
259636
260005
260371
260742
261113
261465
261834
262201
262560
262933
263300
263675
264059
264436
264796
265173
265547
265908
266271
266639
267018
267389
267758
268143
268514
268882
269256
269632
270013
270387
270758
271124
271486
271837
272195
272554
272921
273290
273652
274025
274389
274760
275124
275484
275845
276213
276571
276925
277280
277620
277958
278311
278660
279017
279376
279730
280090
280446
280804
281153
281501
281853
282207
282559
282898
283244
283593
283950
284315
284678
285043
285412
285764
286126
286492
286856
287205
287562
287916
288278
288628
288979
289339
289692
290046
290404
290752
291116
291489
291855
292222
292591
292963
293320
293688
294050
294417
294779
295139
295508
295873
296226
296591
296950
297316
297682
298044
298408
298776
299145
299501
299874
300236
300607
300970
301329
301703
302064
302418
302778
303128
303479
303831
304179
304527
304882
305234
305583
305935
306286
306645
306999
307358
307719
308071
308423
308792
309159
309522
309892
310258
310621
310997
311368
311732
312097
312459
312826
313193
313564
313942
314311
314674
315039
315397
315763
316133
316496
316866
317233
317594
317958
318317
318686
319066
319440
319813
320193
320565
320932
321302
321667
322036
322388
322736
323108
323466
323816
324179
324540
324891
325249
325606
325962
326325
326685
327051
327407
327768
328136
328492
328841
329202
329553
329904
330260
330608
330963
331316
331675
332032
332398
332757
333111
333462
333824
334193
334554
334911
335277
335644
335995
336357
336715
337067
337430
337784
338138
338488
338841
339188
339539
339887
340230
340570
340918
341277
341627
341985
342339
342684
343036
343397
343757
344119
344493
344856
345199
345553
345896
346238
346585
346917
347246
347579
347930
348270
348613
348955
349310
349671
350039
350410
350791
351162
351541
351919
352303
352695
353079
353469
353857
354242
354614
354988
355363
355749
356113
356479
356862
357241
357615
357991
358360
358737
359113
359479
359864
360245
360611
360986
361363
361751
362125
362501
362878
363256
363627
364001
364253
364708
364932
365440
365819
366188
366543
366918
367289
367662
368039
368407
368782
369141
369505
369872
370229
370593
370958
371317
371677
372049
372409
372764
373123
373478
373839
374194
374547
374914
375275
375633
375993
376343
376700
377063
377420
377780
378145
378506
378864
379228
379586
379946
380302
380656
381016
381372
381729
382090
382450
382808
383178
383545
383908
384278
384637
384981
385324
385669
386022
386381
386730
387094
387468
387843
388216
388579
388949
389320
389689
390042
390413
390769
391123
391481
391837
392194
392552
392908
393267
393629
393988
394348
394711
395075
395444
395811
396179
396551
396925
397289
397649
398016
398382
398736
399096
399469
399831
400194
400566
400930
401294
401656
402016
402387
402758
403117
403471
403829
404189
404559
404925
405291
405662
406029
406387
406746
407106
407472
407836
408194
408570
408940
409307
409683
410052
410417
410791
411163
411536
411905
412279
412654
413025
413397
413776
414147
414524
414901
415270
415642
416015
416391
416776
417150
417530
417912
418293
418669
419034
419406
419779
420146
420508
420881
421253
421615
421983
422355
422726
423103
423477
423857
424230
424600
424971
425345
425725
426098
426473
426851
427226
427600
427972
428350
428725
429103
429478
429858
430231
430606
430982
431350
431729
432105
432475
432849
433229
433603
433973
434340
434712
435095
435473
435854
436241
436624
437003
437376
437754
438139
438518
438898
439284
439668
440047
440428
440797
441178
441547
441914
442290
442657
443017
443385
443751
444112
444475
444833
445202
445566
445922
446282
446631
446990
447358
447717
448081
448447
448807
449162
449523
449883
450244
450594
450946
451307
451657
452012
452380
452746
453111
453485
453859
454239
454612
454981
455351
455727
456102
456483
456859
457234
457609
457976
458343
458721
459092
459470
459845
460222
460601
460982
461356
461721
462839
463203
463575
463932
464293
464653
465015
465380
465754
466115
466485
466855
467222
467596
467959
468323
468697
469062
469424
469792
470156
470513
470873
471237
471605
471964
472319
472684
473033
473373
473732
474083
474451
474819
475185
475562
475947
476324
476706
477089
477475
477865
478246
478636
479032
479418
479797
480178
480559
480944
481310
481694
482076
482458
482828
483201
483580
483956
484328
484704
485091
485472
485843
486225
486608
486995
487360
487737
488114
488492
488863
489230
489582
489955
490319
490675
491050
491420
491791
492173
492550
492923
493296
493665
494044
494410
494784
495165
495535
495908
496286
496658
497028
497396
497753
498116
498474
498843
499216
499588
499965
500340
500704
501085
501467
501847
502233
502608
502987
503374
503757
504139
504525
504912
505295
505669
506051
506429
506811
507194
507569
507953
508328
508701
509078
509463
509846
510234
510616
510994
511369
511740
512117
512499
512877
513250
513631
514016
514393
514767
515137
515510
515868
516231
516598
516964
517333
517702
518053
518422
518789
519158
519535
519911
520289
520664
521033
521379
521732
522102
522469
522834
523205
523585
523962
524343
524722
525104
525483
525862
526239
526615
526983
527351
527728
528091
528445
528806
529174
529544
529909
530274
530643
531008
531336
531675
532004
532328
532658
532982
533301
533633
533963
534297
534634
534967
535294
535632
535966
536298
536641
536973
537310
537647
537983
538330
538684
539030
539370
539723
540067
540405
540755
541104
541456
541806
542159
542509
542870
543229
543584
543942
544298
544667
545027
545375
545732
546079
546430
546781
547130
547484
547836
548181
548527
548886
549234
549568
549910
550244
550574
550910
551239
551564
551895
552221
552541
552863
553183
553500
553822
554138
554446
554759
555077
555383
555685
555997
556300
556602
556908
557205
557496
557787
558082
558364
558642
558927
559037
559199
559472
559744
560027
560298
560575
560848
561125
561401
561682
561945
562226
562503
562779
563063
563340
563619
563896
564181
564458
564735
565007
565282
565552
565823
566091
566361
566624
566884
567156
567421
567692
567955
568230
568499
568774
569053
569336
569611
569886
570169
570450
570735
571014
571303
571590
571876
572169
572458
572741
573024
573317
573594
573877
574154
574428
574705
574980
575257
575530
575806
576076
576230
576362
576637
576917
577195
577476
577755
578034
578322
578604
578880
579164
579443
579727
580004
580281
580561
580838
581112
581397
581670
581941
582213
582462
582755
583020
583283
583547
583810
584071
584335
584595
584858
585115
585382
585645
585909
586166
586439
586705
586975
587246
587525
587799
588068
588351
588629
588907
589180
589469
589755
590043
590334
590614
590910
591196
591485
591769
592055
592329
592617
592903
593189
593485
593770
594063
594356
594658
594957
595243
595542
595828
596119
596419
596718
597018
597318
597629
597932
598230
598526
598828
599131
599439
599751
600047
600352
600670
600979
601284
601590
601896
602199
602511
602822
603128
603431
603754
604068
604374
604682
604994
605310
605629
605938
606251
606562
606878
607190
607498
607812
608113
608422
608730
609039
609351
609664
609981
610284
610581
610888
611187
611487
611793
612094
612396
612703
613007
613307
613599
613899
614195
614491
614792
615091
615383
615680
615989
616291
616587
616898
617198
617501
617814
618118
618424
618723
619036
619346
619648
619963
620268
620577
620891
621206
621517
621837
622154
622468
622773
623083
623389
623692
623995
624297
624599
624907
625218
625527
625835
626151
626463
626781
627094
627404
627705
628022
628333
628643
628944
629262
629574
629892
630204
630513
630817
631132
631440
631741
632042
632345
632650
632952
633262
633563
633862
634174
634476
634762
635042
635339
635628
635919
636207
636495
636783
637075
637368
637663
637947
638244
638534
638827
639128
639422
639720
640019
640322
640623
640919
641223
641526
641830
642141
642447
642753
643059
643372
643678
643970
644275
644575
644864
645163
645460
645745
646039
646338
646624
646923
647217
647508
647808
648103
648396
648695
648987
649277
649577
649869
