163
512
870
1216
1570
1926
2282
2642
3012
3380
3741
4111
4462
4818
5186
5542
5899
6262
6622
6983
7340
7697
8047
8396
8745
9100
9451
9799
10159
10511
10857
11220
11577
11934
12296
12654
13021
13395
13765
14140
14516
14889
15266
15638
16008
16381
16742
17111
17478
17839
18188
18538
18887
19242
19596
19951
20321
20683
21048
21419
21779
22150
22519
22877
23239
23603
23960
24314
24659
25003
25360
25716
26069
26434
26791
27144
27509
27873
28238
28607
28971
29339
29714
30089
30456
30828
31199
31578
31947
32314
32685
33058
33420
33780
34147
34519
34884
35252
35623
35992
36357
36723
37091
37461
37835
38211
38583
38954
39315
39673
40027
40382
40742
41090
41440
41804
42157
42507
42866
43214
43568
43924
44279
44638
45002
45367
45716
46073
46423
46780
47124
47471
47818
48158
48494
48833
49171
49516
49868
50215
50564
50919
51256
51597
51940
52277
52603
52940
53276
53622
53982
54338
54697
55063
55425
55779
56142
56490
56841
57192
57541
57886
58230
58578
58926
59280
59624
59972
60323
60664
61007
61347
61689
62041
62381
62720
63060
63392
63730
64056
64385
64716
65047
65388
65728
66072
66419
66767
67110
67451
67794
68141
68476
68814
69165
69515
69854
70203
70550
70908
71276
71621
71977
72348
72713
73076
73450
73822
74198
74566
74926
75298
75666
76022
76388
76749
77109
77469
77818
78170
78523
78872
79218
79568
79913
80261
80611
80960
81309
81655
81998
82343
82686
83036
83389
83740
84083
84438
84783
85136
85488
85833
86170
86512
86854
87191
87536
87876
88218
88565
88907
89268
89623
89979
90338
90706
91066
91415
91767
92120
92465
92814
93156
93508
93870
94219
94570
94921
95279
95643
96006
96362
96727
97097
97463
97836
98199
98567
98938
99298
99663
100028
100392
100754
101118
101485
101858
102228
102599
102980
103356
103728
104100
104470
104843
105199
105562
105931
106293
106648
107008
107364
107722
108082
108439
108791
109149
109510
109862
110224
110586
110955
111321
111683
112053
112419
112785
113153
113520
113892
114263
114623
114993
115358
115712
116073
116424
116773
117133
117479
117822
118175
118519
118872
119233
119599
119977
120343
120711
121086
121462
121827
122193
122559
122924
123286
123645
124007
124380
124744
125093
125451
125801
126160
126519
126877
127251
127620
127990
128364
128725
129095
129477
129854
130220
130596
130968
131333
131694
132056
132426
132783
133139
133506
133864
134224
134590
134949
135312
135676
136037
136400
136760
137117
137471
137826
138174
138539
138895
139249
139610
139960
140306
140653
141000
141347
141694
142027
142354
142692
143022
143337
143659
143972
144280
144594
144900
145210
145529
145852
146179
146500
146828
147148
147468
147792
148104
148414
148737
149050
149359
149671
149988
150311
150635
150965
151302
151648
151987
152320
152658
152992
153335
153685
154029
154374
154721
155068
155410
155753
156090
156424
156766
157104
157441
157790
158136
158483
158833
159186
159546
159913
160269
160614
160968
161318
161656
162005
162354
162710
163061
163407
163745
164093
164437
164769
165112
165448
165789
166137
166483
166836
167197
167557
167906
168258
168614
168967
169317
169666
170019
170379
170735
171085
171436
171793
172151
172494
172836
173188
173525
173855
174190
174517
174853
175206
175552
175897
176260
176610
176953
177303
177647
177982
178319
178658
179006
179367
179726
180091
180458
180823
181181
181550
181915
182277
182637
182991
183340
183686
184032
184384
184727
185068
185417
185766
186111
186460
186810
187163
187528
187888
188239
188608
188972
189312
189663
190016
190375
190731
191082
191439
191799
192153
192503
192861
193220
193588
193943
194297
194663
195019
195366
195724
196075
196438
196800
197164
197534
197905
198269
198637
198998
199364
199729
200090
200454
200823
201190
201549
201914
202266
202621
202977
203337
203704
204073
204435
204806
205174
205542
205904
206263
206630
206999
207366
207725
208084
208445
208815
209178
209544
209923
210299
210672
211057
211434
211821
212203
212580
212968
213345
213718
214092
214472
214858
215233
215602
215976
216338
216697
217062
217421
217781
218156
218526
218898
219281
219659
220029
220407
220787
221171
221540
221916
222301
222678
223053
223429
223812
224197
224562
224927
225304
225668
226027
226396
226759
227126
227499
227863
228241
228617
228983
229359
229724
230092
230468
230836
231207
231583
231951
232319
232688
233045
233414
233770
234132
234501
234869
235231
235592
235949
236316
236680
237041
237405
237767
238128
238491
238856
239231
239604
239975
240354
240727
241106
241477
241848
242223
242588
242961
243340
243706
244081
244451
244815
245190
245562
245923
246280
246650
247011
247359
247720
248083
248441
248803
249157
249520
249882
250238
250596
250962
251325
251698
252053
252414
252780
253141
253496
253853
254213
254573
254930
255287
255649
256008
256366
256729
257090
257446
257810
258170
258537
258916
259290
259645
260014
260379
260749
261120
261476
261843
262209
262569
262941
263308
263683
264065
264443
264806
265180
265554
265916
266277
266645
267024
267399
267765
268150
268524
268891
269261
269637
270020
270393
270763
271131
271494
271847
272203
272562
272929
273296
273658
274031
274394
274764
275131
275492
275850
276217
276575
276930
277289
277629
277964
278317
278668
279025
279383
279735
280094
280455
280811
281159
281507
281859
282215
282567
282905
283249
283603
283959
284323
284686
285051
285420
285772
286133
286497
286862
287214
287569
287922
288285
288635
288984
289346
289698
290050
290410
290760
291123
291495
291861
292229
292599
292970
293328
293695
294057
294425
294786
295144
295514
295880
296233
296596
296955
297323
297689
298049
298416
298782
299151
299509
299880
300245
300616
300978
301336
301711
302070
302423
302785
303137
303489
303839
304186
304534
304889
305241
305592
305941
306294
306653
307007
307365
307725
308080
308429
308798
309165
309529
309898
310266
310630
311004
311375
311739
312105
312468
312835
313201
313572
313948
314318
314682
315048
315406
315772
316141
316503
316872
317239
317601
317968
318326
318695
319073
319447
319821
320201
320574
320939
321306
321672
322040
322398
322743
323116
323473
323824
324186
324547
324899
325255
325613
325971
326334
326692
327058
327413
327775
328142
328498
328847
329207
329560
329909
330265
330613
330968
331322
331682
332039
332404
332762
333120
333468
333831
334198
334558
334919
335284
335651
336002
336366
336722
337075
337438
337790
338145
338495
338847
339194
339545
339894
340239
340579
340924
341285
341635
341991
342346
342692
343045
343405
343764
344126
344500
344863
345208
345561
345902
346245
346592
346926
347254
347589
347937
348276
348618
348962
349316
349677
350045
350416
350797
351169
351548
351927
352310
352702
353088
353477
353865
354250
354622
354995
355370
355753
356120
356486
356869
357248
357621
357997
358366
358744
359118
359485
359869
360251
360617
360993
361369
361757
362131
362506
362884
363261
363633
364007
364258
364713
364921
365446
365825
366193
366549
366923
367293
367667
368045
368412
368787
369148
369512
369878
370236
370599
370965
371322
371683
372054
372414
372769
373129
373485
373845
374201
374554
374921
375281
375638
376000
376350
376707
377070
377426
377787
378151
378512
378870
379234
379592
379952
380309
380663
381023
381380
381735
382098
382456
382815
383185
383551
383915
384283
384642
384987
385329
385674
386028
386386
386736
387100
387472
387849
388222
388585
388955
389333
389697
390049
390418
390775
391129
391486
391842
392200
392557
392913
393273
393635
393993
394354
394716
395080
395451
395815
396185
396557
396930
397295
397655
398021
398389
398743
399102
399475
399837
400200
400571
400935
401299
401662
402024
402394
402764
403123
403478
403835
404195
404564
404931
405298
405668
406035
406393
406752
407111
407476
407841
408200
408576
408945
409311
409688
410057
410424
410797
411168
411540
411911
412284
412659
413030
413401
413780
414152
414529
414906
415275
415647
416019
416396
416781
417155
417536
417919
418298
418675
419039
419410
419785
420150
420514
420886
421257
421619
421988
422360
422733
423108
423482
423862
424235
424605
424979
425350
425731
426104
426479
426858
427232
427605
427978
428355
428732
429109
429482
429864
430236
430610
430987
431355
431735
432112
432482
432856
433234
433608
433981
434347
434717
435102
435479
435860
436247
436629
437009
437382
437760
438145
438523
438903
439289
439673
440053
440433
440803
441183
441553
441919
442295
442664
443023
443390
443756
444120
444482
444838
445207
445571
445927
446289
446637
446996
447363
447721
448085
448451
448813
449166
449527
449888
450248
450599
450950
451312
451664
452017
452385
452751
453118
453492
453864
454244
454617
454985
455357
455732
456108
456489
456864
457239
457614
457983
458350
458726
459098
459476
459851
460229
460608
460987
461361
461728
462100
462477
462847
463210
463580
463939
464299
464659
465021
465387
465760
466124
466493
466863
467230
467602
467965
468331
468703
469068
469432
469800
470166
470521
470880
471244
471611
471972
472325
472689
473040
473379
473737
474091
474457
474827
475190
475568
475953
476331
476711
477096
477480
477871
478254
478643
479039
479422
479804
480184
480566
480951
481315
481700
482082
482464
482835
483208
483585
483963
484334
484709
485096
485477
485849
486231
486613
487001
487367
487743
488120
488497
488869
489234
489589
489961
490325
490682
491056
491428
491798
492179
492557
492931
493303
493672
494052
494418
494791
495171
495543
495915
496293
496664
497037
497403
497760
498123
498482
498850
499223
499595
499972
500347
500710
501092
501473
501853
502240
502614
502996
503381
503764
504146
504533
504918
505302
505677
506058
506436
506817
507203
507578
507959
508335
508711
509086
509470
509853
510241
510622
511000
511376
511749
512124
512504
512886
513257
513637
514022
514400
514772
515143
515516
515874
516237
516603
516970
517340
517711
518059
518429
518795
519165
519543
519919
520297
520671
521040
521387
521738
522108
522476
522842
523212
523592
523968
524350
524729
525111
525490
525869
526247
526622
526990
527359
527735
528098
528452
528813
529181
529550
529916
530280
530650
531013
531344
531679
532009
532334
532664
532989
533308
533642
533970
534304
534642
534976
535302
535639
535974
536306
536649
536981
537317
537656
537990
538338
538692
539039
539378
539729
540075
540414
540764
541112
541464
541814
542167
542518
542877
543236
543593
543951
544306
544675
545035
545384
545741
546088
546440
546791
547140
547492
547844
548188
548534
548893
549239
549577
549916
550253
550582
550921
551248
551572
551905
552230
552548
552871
553192
553509
553831
554144
554454
554767
555086
555390
555693
556005
556309
556611
556914
557211
557501
557794
558094
558371
558650
558930
559206
559481
559756
560035
560305
560581
560856
561136
561408
561685
561956
562234
562509
562787
563069
563347
563627
563903
564184
564455
564735
565014
565290
565560
565826
566098
566366
566630
566892
567165
567429
567698
567963
568236
568508
568783
569061
569343
569618
569893
570176
570458
570742
571020
571311
571597
571883
572175
572464
572748
573032
573324
573602
573884
574161
574434
574711
574988
575266
575538
575813
576086
576366
576647
576923
577203
577482
577763
578043
578329
578607
578886
579169
579451
579733
580011
580289
580568
580845
581119
581403
581675
581947
582220
582494
582761
583025
583290
583555
583817
584079
584345
584602
584864
585121
585393
585650
585916
586174
586446
586713
586982
587254
587532
587807
588076
588358
588636
588913
589187
589477
589761
590049
590340
590630
590916
591202
591496
591776
592061
592337
592623
592911
593195
593493
593777
594070
594364
594664
594963
595250
595831
596127
596427
596726
597026
597326
597636
597939
598238
598535
598836
599137
599446
599757
600054
600359
600676
600985
601290
601597
601903
602206
602520
602827
603135
603440
603762
604076
604382
604689
605001
605317
605637
605946
606258
606571
606886
607198
607505
607819
608120
608430
608738
609046
609357
609670
609987
610291
610588
610896
611196
611494
611799
612102
612403
612708
613013
613315
613607
613906
614201
614499
614799
615097
615390
615687
615996
616297
616594
616904
617205
617510
617819
618124
618430
618731
619043
619352
619655
619969
620274
620584
620897
621213
621523
621843
622160
622474
622779
623089
623394
623699
624003
624303
624606
624915
625223
625533
625842
626158
626470
626788
627101
627411
627712
628029
628340
628649
628962
629269
629580
629899
630210
630520
630826
631138
631447
631748
632050
632351
632657
632960
633269
633569
633869
634182
634483
634769
635050
635346
635635
635925
636216
636501
636789
637082
637374
637669
637954
638250
638542
638834
639134
639428
639727
640026
640330
640631
640926
641232
641533
641838
642148
642454
642761
643067
643379
643683
643977
644283
644582
644871
645170
645467
645753
646046
646347
646632
646930
647224
647515
647815
648110
648403
648703
648994
649286
649586
649876
