84
320
553
791
1009
1247
1481
1725
1960
2201
2442
2685
2929
3178
3429
3678
3927
4176
4419
4673
4925
5175
5418
5671
5920
6169
6409
6675
6918
7156
7397
7649
7897
8142
8370
8611
8853
9089
9329
9567
9810
10052
10289
10529
10781
11028
11272
11519
11769
12022
12273
12532
12788
13039
13287
13545
13798
14047
14294
14546
14796
15045
15298
15553
15802
16052
16303
16559
16813
17066
17312
17563
17818
18073
18326
18589
18850
19104
19351
19624
19877
20137
20393
20653
20897
21159
21413
21668
21906
22150
22401
22651
22894
23136
23371
23629
23875
24122
24368
24618
24870
25118
25369
25625
25870
26121
26368
26618
26863
27105
27352
27605
27851
28099
28354
28607
28861
29114
29370
29627
29881
30137
30397
30649
30894
31142
31394
31646
31897
32132
32379
32633
32882
33134
33386
33630
33882
34131
34386
34623
34865
35107
35357
35596
35834
36068
36307
36560
36803
37050
37300
37549
37793
38043
38295
38546
38797
39049
39315
39574
39833
40089
40351
40605
40866
41121
41384
41638
41895
42153
42411
42667
42924
43189
43446
43704
43958
44227
44494
44768
45033
45301
45567
45828
46095
46355
46612
46865
47128
47384
47635
47886
48149
48402
48652
48898
49153
49397
49654
49899
50150
50394
50639
50892
51144
51392
51635
51873
52130
52376
52621
52860
53106
53341
53589
53835
54089
54335
54578
54827
55084
55334
55586
55828
56077
56323
56569
56821
57074
57325
57577
57832
58103
58364
58628
58883
59152
59420
59691
59963
60228
60483
60742
61008
61267
61527
61776
62048
62314
62585
62853
63115
63378
63639
63906
64175
64446
64716
64999
65289
65589
65902
66220
66528
66853
67184
67495
67797
68098
68386
68665
68942
69218
69493
69760
70030
70297
70565
70829
71096
71351
71608
71870
72131
72384
72634
72888
73142
73395
73639
73896
74140
74386
74637
74893
75137
75386
75628
75885
76132
76383
76622
76868
77116
77362
77611
77865
78110
78358
78605
78864
79116
79372
79622
79883
80143
80402
80663
80923
81176
81430
81694
81946
82206
82454
82712
82962
83213
83467
83724
83970
84220
84469
84724
84974
85228
85472
85728
85982
86236
86495
86749
87002
87253
87513
87771
88026
88279
88539
88794
89052
89311
89575
89835
90099
90364
90631
90893
91160
91421
91686
91945
92204
92466
92731
92990
93246
93511
93777
94041
94304
94577
94841
95110
95383
95658
95922
96188
96456
96719
96984
97239
97499
97755
98017
98278
98538
98791
99049
99302
99570
99825
100079
100331
100589
100841
101089
101343
101596
101848
102110
102384
102664
102959
103250
103543
103827
104115
104399
104677
104949
105216
105494
105767
106039
106302
106581
106860
107136
107416
107694
107965
108237
108511
108772
109039
109298
109566
109832
110104
110379
110655
110929
111196
111480
111756
112021
112284
112553
112820
113082
113350
113605
113862
114121
115141
115395
115644
115897
116141
116394
116641
116886
117133
117374
117615
117862
118097
118343
118575
118815
119058
119308
119548
119789
120022
120280
120528
120777
121022
121279
121531
121784
122044
122305
122563
122819
123084
123345
123608
123862
124127
124393
124663
124930
125196
125458
125722
125990
126258
126523
126783
127054
127316
127574
127840
128112
128373
128631
128899
129169
129426
129685
129943
130203
130455
130714
130974
131231
131486
131737
131996
132250
132506
132751
133002
133253
133500
133746
133999
134237
134481
134720
134971
135201
135436
135665
135911
136138
136376
136602
136835
137071
137300
137542
137770
138008
138236
138466
138684
138916
139146
139366
139587
139814
140051
140280
140497
140720
140954
141187
141420
141636
141864
142093
142327
142561
142794
143030
143253
143483
143723
143965
144196
144435
144660
144901
145136
145372
145611
145853
146094
146325
146569
146813
147057
147298
147527
147763
148010
148244
148486
148732
148977
149205
149454
149699
149948
150191
150431
150677
150926
151172
151425
151677
151928
152178
152424
152674
152927
153172
153417
153661
153912
154160
154404
154660
154919
155174
155425
155689
155950
156215
156471
156740
156996
157262
157533
157804
158070
158339
158616
158886
159160
159422
159697
159967
160239
160510
160777
161041
161302
161574
161843
162103
162360
162627
162886
163145
163409
163667
163923
164177
164433
164692
164944
165187
165435
165680
165931
166184
166437
166690
166940
167204
167480
167758
168041
168311
168597
168873
169151
169431
169712
169982
170255
170541
170814
171090
171363
171636
171911
172189
172462
172725
172994
173260
173534
173797
174057
174324
174588
174852
175116
175383
175640
175904
176169
176440
176703
176962
177221
177484
177745
178007
178268
178524
178782
179043
179309
179565
179822
180068
180329
180581
180834
181086
181334
181584
181833
182082
182340
182589
182832
183087
183345
183597
183847
184103
184364
184617
184872
185128
185385
185647
185909
186166
186427
186684
186947
187214
187484
187752
188017
188303
188576
188854
189128
189414
189695
189984
190279
190559
190837
191116
191402
191689
191963
192243
192520
192800
193088
193380
193661
193937
194228
194507
194786
195060
195337
195604
195875
196156
196423
196690
196952
197226
197497
197768
198045
198320
198602
198884
199168
199447
199727
200006
200284
200567
200841
201117
201386
201656
201936
202214
202482
202747
203027
203301
203573
203844
204117
204384
204662
204947
205219
205491
205773
206054
206330
206606
206883
207159
207432
207703
207984
208258
208528
208807
209085
209370
209660
209957
210245
210535
210831
211113
211401
211686
211967
212240
212514
212791
213058
213328
213601
213882
214149
214420
214696
214974
215251
215516
215799
216072
216342
216616
216890
217159
217417
217698
217970
218242
218501
218771
219033
219297
219564
219827
220092
220346
220605
220865
221122
221370
221617
221862
222114
222361
222614
222862
223100
223348
223599
223851
224094
224328
224576
224821
225062
225303
225540
225785
226024
226270
226517
226769
227020
227274
227524
227780
228039
228296
228560
228819
229071
229324
229586
229842
230097
230345
230604
230859
231116
231376
231642
231899
232161
232424
232692
232953
233223
233492
233756
234021
234286
234552
234825
235103
235369
235651
235927
236193
236460
236731
236999
237270
237545
237804
238074
238346
238613
238871
239131
239393
239653
239907
240172
240435
240699
240961
241218
241488
241744
242006
242256
242514
242775
243030
243293
243558
243817
244073
244343
244604
244865
245117
245381
245636
245895
246148
246400
246648
246891
247141
247381
247623
247863
248090
248321
248552
248786
249019
249263
249491
249723
249956
250204
250442
250682
250907
251156
251398
251639
251880
252128
252364
252609
252853
253104
253348
253592
253833
254086
254332
254583
254832
255089
255337
255594
255842
256102
256352
256605
256848
257109
257363
257616
257869
258135
258394
258650
258914
259179
259439
259697
259959
260220
260479
260739
261002
261265
261524
261784
262044
262297
262561
262813
263074
263332
263586
263845
264112
264371
264629
264889
265155
265420
265684
265956
266221
266486
266757
267032
267298
267567
267842
268119
268393
268665
268937
269211
269490
269767
270056
270331
270608
270892
271173
271452
271724
272006
272277
272553
272835
273113
273390
273673
273982
274273
274560
274850
275138
275430
275711
275995
276275
276553
276838
277106
277380
277643
277914
278182
278443
278714
278991
279267
279541
279826
280102
280383
280655
280932
281212
281499
281781
282053
282326
282603
282881
283151
283418
283689
283962
284236
284503
284774
285039
285304
285574
285846
286106
286371
286644
286911
287178
287451
287725
287992
288266
288541
288809
289083
289344
289617
289881
290147
290416
290699
290976
291249
291528
291797
292072
292338
292612
292879
293140
293408
293675
293937
294204
294484
294751
295029
295310
295599
295881
296163
296454
296739
297030
297316
297597
297876
298149
298430
298698
298961
299230
299499
299764
300020
300290
300556
300819
301080
301346
301603
301866
302133
302401
302663
302920
303181
303444
303701
303961
304215
304478
304746
305016
305295
305573
305850
306130
306425
306708
306996
307289
307572
307858
308151
308435
308709
308992
309280
309560
309849
310135
310430
310714
310996
311288
311578
311855
312137
312420
312693
312964
313246
313513
313776
314048
314317
314578
314839
315106
315369
315634
315898
316164
316426
316685
316950
317219
317480
317735
317997
318264
318528
318788
319047
319314
319576
319842
320114
320377
320642
320911
321184
321445
321708
321969
322228
322490
322756
323028
323286
323551
323813
324082
324341
324601
324854
325108
325362
325612
325866
326124
326371
326620
326867
327115
327364
327609
327858
328099
328337
328587
328834
329081
329323
329572
329822
330077
330332
330585
330845
331098
331356
331621
331892
332157
332419
332678
332948
333216
333481
333748
334014
334281
334555
334836
335098
335365
335639
335913
336178
336438
336707
336970
337237
337500
337772
338030
338294
338555
338817
339083
339344
339609
339869
340137
340405
340684
340951
341209
341471
341740
342004
342266
342522
342781
343043
343307
343574
343832
344102
344368
344648
344919
345194
345462
345737
346011
346291
346571
346846
347122
347402
347690
347970
348244
348520
348791
349056
349329
349607
349881
350165
350445
350724
350988
351258
351524
351788
352052
352312
352581
352844
353107
353361
353627
353887
354141
354393
354653
354900
355152
355411
355667
355918
356167
356426
356681
356939
357190
357452
357707
357973
358241
358513
358789
359066
359353
359641
359943
360219
360513
360801
361088
361373
361652
361934
362222
362514
362796
363073
363357
363639
363918
364200
364473
364755
365036
365332
365623
365908
366192
366475
366759
367033
367316
367590
367866
368139
368411
368681
368947
369226
369496
369755
370028
370298
370558
370820
371080
371341
371599
371853
372116
372365
372611
372871
373124
373375
373626
373869
374122
374371
374625
374868
375125
375374
375624
375879
376140
376395
376653
376911
377171
377428
377687
377953
378215
378473
378741
379014
379280
379545
379805
380078
380344
380616
380879
381139
381403
381666
381941
382199
382461
382721
382997
383262
383523
383782
384047
384313
384579
384846
385111
385379
385645
385919
386179
386449
386713
386983
387251
387517
387790
388062
388332
388593
388862
389130
389393
389649
389913
390166
390423
390683
390948
391204
391457
391719
391982
392242
392501
392754
393009
393261
393515
393772
394022
394268
394522
394781
395038
395296
395541
395808
396062
396325
396595
396867
397136
397406
397690
397963
398239
398511
398796
399071
399350
399636
399914
400191
400459
400743
401021
401301
401573
401847
402124
402401
402688
402963
403231
403515
403799
404092
404381
404681
404979
405280
405588
405873
406156
406442
406721
406993
407256
407529
407793
408065
408333
408599
408866
409127
409399
409671
409938
410199
410473
410747
411021
411305
411590
411868
412141
412422
412696
412968
413239
413507
413772
414046
414319
414587
414854
415118
415393
415659
415931
416198
416467
416741
417024
417311
417597
417875
418164
418456
418742
419015
419303
419586
419872
420160
420447
420735
421018
421304
421589
421875
422153
422432
422718
422997
423287
423580
423870
424181
424478
424765
425049
425339
425632
425925
426224
426504
426785
427089
427397
427702
427990
428282
428569
428849
429132
429416
429699
429983
430268
430553
430824
431110
431389
431676
431956
432240
432520
432796
433076
433347
433618
433876
434140
434403
434667
434930
435191
435445
435703
435962
436221
436474
436728
436984
437244
437497
437749
438014
438268
438529
438785
439059
439320
439588
439847
440120
440391
440661
440933
441197
441466
441729
442004
442272
442542
442807
443071
443338
443608
443884
444150
444419
444688
444966
445234
445501
445783
446060
446334
446614
446908
447191
447471
447771
448056
448352
448643
448942
449231
449523
449826
450122
450419
450719
451003
451282
451555
451833
452102
452377
452660
452932
453195
453467
453739
454007
454272
454532
454790
455053
455317
455581
455838
456100
456364
456636
456900
457167
457436
457710
457984
458262
458547
458825
459092
459360
459636
459906
460170
460439
460709
460972
461247
461523
461787
462062
462342
462625
462911
463193
463474
463742
464014
464286
464555
464819
465081
465349
465610
465872
466130
466398
466655
466911
467171
467441
467700
467961
468221
468491
468754
469015
469273
469532
469792
470055
470321
470579
470843
471106
471374
471634
471900
472155
472418
472675
472934
473198
473461
473716
473972
474238
474499
474762
475016
475279
475537
475801
476068
476339
476598
476861
477129
477395
477661
477923
478186
478448
478710
478972
479241
479501
479760
480017
480291
480551
480809
481062
481322
481578
481832
482094
482345
482591
482845
483103
483354
483601
483843
484095
484339
484589
484831
485076
485321
485562
485800
486041
486279
486523
486754
486995
487228
487470
487709
487951
488191
488418
488656
488900
489141
489371
489598
489835
490071
490302
490536
490765
491013
491244
491485
491724
491969
492207
492455
492688
492936
493180
493428
493677
493932
494183
494440
494700
494960
495222
495482
495749
496012
496274
496541
496816
497080
497344
497610
497880
498148
498413
498685
498951
499227
499504
499782
500054
500331
500615
500889
501163
501428
501703
501970
502227
502492
502759
503021
503278
503537
503802
504061
504318
504583
504833
505092
505355
505617
505875
506126
506377
506636
506888
507143
507394
507658
507916
508182
508451
508726
508990
509254
509529
509794
510061
510318
510587
510848
511113
511380
511647
511914
512186
512468
512740
513018
513286
513560
513830
514101
514372
514645
514916
515181
515458
515724
515991
516254
516530
516800
517069
517341
517616
517885
518150
518428
518697
518974
519252
519527
519807
520090
520375
520655
520927
521190
521465
521730
521992
522247
522506
522754
523010
523267
523518
523759
524008
524259
524505
524746
524994
525244
525493
525739
525988
526245
526498
526750
527000
527258
527506
527769
528021
528286
528548
528808
529073
529343
529608
529871
530138
530410
530676
530936
531210
531468
531733
532002
532273
532536
532802
533071
533340
533608
533874
534147
534409
534675
534941
535215
535482
535743
536021
536295
536576
536847
537126
537402
537674
537954
538222
538491
538757
539027
539295
539563
539830
540087
540354
540620
540888
541139
541400
541657
541923
542180
542438
542693
542951
543213
543473
543734
544002
544265
544523
544793
545051
545313
545567
545830
546084
546336
546597
546862
547115
547375
547632
547892
548151
548408
548663
548914
549166
549421
549676
549931
550186
550439
550705
550970
551237
551497
551763
552032
552304
552593
552873
553150
553433
553722
553998
554284
554561
554843
555126
555412
555699
555971
556249
556523
556808
557085
557358
557642
557926
558214
558493
558774
559058
559351
559665
559974
560274
560583
560869
561163
561458
561745
562027
562308
562596
562886
563184
563478
563773
564070
564362
564651
564933
565207
565489
565765
566042
566316
566587
566847
567113
567386
567648
567907
568166
568436
568698
568963
569217
569477
569740
570003
570268
570530
570795
571062
571336
571598
571859
572114
572380
572635
572888
573151
573415
573669
573921
574183
574441
574693
574943
575196
575441
575686
575937
576187
576430
576670
576912
577162
577407
577654
577890
578136
578384
578627
578873
579122
579372
579626
579881
580149
580404
580663
580922
581186
581439
581692
581955
582216
582470
582725
582983
583238
583491
583742
583995
584236
584487
584736
584989
585232
585477
585722
585976
586223
586470
586705
586961
587210
587459
587706
587961
588210
588459
588706
588962
589209
589461
589708
589962
590203
590451
590703
590956
591206
591456
591707
591968
592228
592484
592730
592984
593237
593485
593740
593992
594237
594484
594736
594988
595235
595476
595726
595975
596218
596467
596718
596964
597208
597458
597708
597960
598213
598457
598711
598964
599220
599480
599742
600006
600266
600526
600795
601054
601311
601563
601824
602073
602321
602575
602834
603081
603335
603593
603852
604114
604373
604634
604890
605143
605403
605662
605918
606176
606431
606700
606962
607227
607494
607769
608035
608310
608593
608864
609133
609400
609676
609941
610203
610467
610725
610988
611266
611567
611867
612165
612469
612767
613056
613340
613631
613922
614199
614488
614772
615054
615337
615619
615903
616173
616447
616716
616983
617259
617530
617790
618053
618326
618588
618854
619104
619370
619628
619889
620153
620407
620666
620920
621183
621445
621705
621952
622215
622470
622723
622978
623234
623485
623732
623990
624247
624496
624749
625002
625258
625516
625784
626050
626318
626585
626855
627136
627405
627674
627942
628212
628480
628748
629021
629291
629559
629822
630093
630357
630616
630873
631138
631390
631643
631901
632160
632409
632662
632915
633172
633428
633680
633937
634186
634440
634696
634951
635204
635453
635695
635954
636202
636452
636690
636940
637191
637442
637695
637954
638201
638454
638706
638970
639221
639476
639719
639970
640220
640470
640718
640963
641208
641455
641699
641952
642199
642444
642692
642946
643199
643451
643707
643970
644229
644486
644752
645011
645266
645520
645783
646042
646295
646547
646812
647066
647323
647581
647843
648097
648352
648604
648865
649119
649375
649637
649908
