67
549
1019
1497
1923
2338
2819
3257
3665
4151
4628
5069
5592
6072
6509
6989
7473
7919
8407
8892
9325
9792
10273
10712
11197
11681
12144
12634
13114
13529
13991
14438
14847
15276
15721
16111
16512
16948
17352
17739
18194
18620
19025
19492
19915
20317
20753
21164
21553
22000
22456
22872
23320
23758
24172
24616
25060
25463
25912
26348
26744
27119
27474
27838
28198
28538
28907
29288
29658
30065
30544
30999
31470
31933
32364
32798
33257
33673
34100
34546
34952
35372
35876
36304
36711
37217
37642
38030
38393
38741
39102
39479
39842
40225
40624
41016
41511
42009
42491
42984
43418
43863
44330
44750
45140
45559
46006
46427
46872
47331
47699
48065
48432
48812
49338
49806
50287
50766
51211
51682
52162
52586
53077
53545
53959
54398
54867
55297
55714
56185
56565
56947
57342
57761
58304
58809
59266
59746
60201
60638
61108
61537
61933
62357
62772
63166
63564
64061
64535
64937
65414
65870
66254
66619
66988
67343
67715
68226
68702
69205
69677
70149
70648
71092
71528
72008
72461
72884
73327
73740
74133
74597
75006
75377
75758
76127
76633
77109
77576
78072
78528
78983
79430
79838
80297
80727
81136
81556
82009
82404
82802
83169
83524
83901
84265
84652
85144
85612
86104
86590
87023
87453
87920
88345
88777
89227
89652
90068
90542
90974
91382
91827
92285
92699
93192
93627
94037
94489
94939
95346
95798
96244
96652
97104
97505
97880
98250
98605
98968
99324
99685
100046
100409
100915
101372
101841
102338
102790
103269
103767
104210
104660
105119
105540
105987
106467
106906
107361
107841
108285
108741
109231
109659
110130
110592
111013
111462
111888
112251
112610
112978
113335
113751
114278
114760
115241
115698
116155
116635
117077
117519
117975
118392
118850
119321
119744
120205
120662
121083
121556
122019
122438
122871
123260
123615
123986
124354
124741
125283
125774
126257
126750
127191
127676
128146
128574
129024
129482
129905
130309
130758
131187
131586
132013
132404
132827
133280
133707
134161
134615
135029
135469
135873
136299
136752
137169
137587
138010
138373
138727
139093
139453
139834
140316
140792
141230
141735
142187
142653
143112
143524
143971
144415
144822
145273
145719
146101
146530
146971
147372
147757
148157
148508
148864
149230
149593
149991
150456
150908
151366
151850
152282
152471
152737
153138
153555
153965
154396
154792
155192
155623
156034
156441
156870
157232
157598
157963
158315
158692
159137
159587
160008
160446
160865
161295
161666
162030
162395
162739
163072
163422
163813
164192
164562
164964
165390
165878
166333
166814
167277
167719
168191
168630
169051
169498
169906
170277
170641
170985
171335
171704
172119
172535
172984
173434
173852
174283
174696
175072
175445
175800
176148
176497
176841
177186
177561
178035
178512
179014
179486
179927
180400
180906
181336
181810
182299
182718
183168
183627
184038
184446
184819
185193
185563
185936
186348
186842
187324
187809
188264
188712
189184
189641
190074
190538
190957
191378
191821
192227
192651
193092
193499
193893
194254
194611
194973
195319
195683
196085
196506
197032
197510
197947
198339
198715
199081
199432
199774
200105
200455
200798
201137
201493
201864
202245
202643
203019
203408
203828
204287
204753
205254
205708
206173
206668
207110
207529
207966
208346
208715
209092
209465
209927
210472
210990
211507
211980
212455
212953
213397
213854
214282
214701
215153
215565
215932
216307
216696
217137
217657
218127
218625
219078
219521
219997
220448
220850
221240
221604
221971
222356
222858
223318
223800
224283
224732
225180
225595
226049
226511
226939
227395
227847
228273
228708
229137
229556
230008
230424
230837
231312
231719
232148
232614
233029
233456
233905
234336
234752
235215
235653
236059
236504
236952
237357
237812
238261
238668
239100
239545
239956
240376
240761
241137
241494
241848
242194
242554
242935
243430
243918
244407
244844
245285
245763
246197
246635
247106
247527
247995
248484
248893
249355
249824
250242
250700
251190
251613
252075
252515
252936
253381
253815
254220
254666
255107
255516
255979
256430
256840
257272
257737
258154
258619
259060
259468
259921
260338
260737
261168
261570
261957
262382
262795
263202
263641
264076
264482
264946
265398
265822
266296
266756
267167
267617
268048
268452
268891
269323
269725
270167
270652
271067
271508
271962
272392
272792
273249
273674
274027
274393
274736
275075
275427
275784
276262
276648
277034
277430
277878
278335
278763
279216
279655
280079
280520
280982
281399
281889
282384
282837
283327
283801
284262
284737
285201
285661
286100
286573
287010
287481
287949
288380
288813
289275
289682
290082
290473
290821
291177
291528
291871
292248
292781
293283
293795
294272
294717
295183
295632
296069
296526
296954
297381
297867
298297
298778
299257
299707
300155
300624
301049
301522
301974
302385
302826
303275
303674
304112
304551
304964
305432
305894
306330
306784
307255
307675
308113
308545
308955
309353
309804
310266
310684
311059
311413
311771
312149
312592
313001
313471
313945
314338
314756
315174
315564
315976
316400
316800
317251
317690
318091
318556
319013
319429
319879
320331
320740
321207
321646
322075
322529
322972
323396
323892
324342
324812
325282
325722
326150
326644
327094
327506
327984
328447
328866
329320
329756
330146
330578
331005
331412
331869
332312
332734
333201
333623
334025
334468
334895
335299
335758
336211
336623
337095
337566
337999
338462
338928
339349
339820
340274
340678
341114
341586
342003
342414
342856
343277
343683
344142
344590
344993
345450
345886
346284
346694
347116
347500
347883
348304
348727
349119
349566
350024
350439
350898
351365
351784
352246
352717
353126
353581
354038
354434
354855
355302
355707
356151
356624
357036
357466
357908
358349
358767
359227
359677
360093
360552
361011
361411
361834
362263
362663
363074
363507
363927
364317
364727
365146
365539
365985
366463
366906
367357
367808
368214
368654
369095
369508
369913
370339
370766
371168
371616
372050
372464
372925
373363
373765
374193
374627
375044
375504
375972
376395
376823
377237
377585
377948
378296
378619
378958
379295
379685
380083
380600
381093
381557
382051
382537
383006
383495
383940
384385
384829
385226
385646
386074
386474
386897
387319
387717
388187
388615
389028
389488
389965
390389
390885
391359
391797
392255
392709
393115
393599
394064
394482
394948
395376
395778
396229
396663
397050
397509
397954
398326
398687
399044
399394
399746
400145
400559
401096
401589
402077
402570
403035
403509
403965
404381
404825
405257
405662
406127
406552
406934
407337
407791
408200
408660
409171
409619
410052
410520
410943
411370
411799
412178
412591
413082
413542
413977
414443
414877
415283
415715
416168
416575
417049
417471
417905
418371
418798
419232
419678
420094
420482
420904
421357
421776
422218
422670
423081
423495
423919
424329
424717
425138
425557
425938
426372
426809
427208
427638
428093
428489
428911
429297
429643
429997
430352
430695
431121
431643
432129
432625
433101
433543
434023
434445
434859
435296
435761
436166
436628
437079
437484
437922
438370
438761
439173
439604
440012
440420
440899
441396
441833
442310
442775
443203
443660
444133
444534
444992
445442
445844
446290
446733
447136
447526
447980
448447
448858
449320
449781
450182
450643
451097
451496
451954
452399
452802
453219
453693
454128
454556
455004
455436
455827
456262
456686
457071
457487
457906
458291
458689
459134
459555
459967
460402
460856
461260
461745
462213
462625
463080
463560
463993
464450
464926
465360
465776
466238
466693
467103
467552
468001
468402
468835
469269
469662
470107
470560
470989
471381
471822
472247
472644
473084
473534
473939
474365
474807
475211
475621
476058
476435
476798
477152
477494
477842
478190
478543
478888
479237
479615
480141
480606
481064
481567
482026
482483
482989
483461
483867
484250
484622
484958
485305
485646
485990
486353
486735
487143
487673
488174
488645
489154
489628
490085
490560
491020
491506
491983
492410
492890
493354
493779
494254
494685
495076
495509
495947
496356
496818
497279
497694
498149
498580
498985
499455
499925
500339
500810
501260
501662
502094
502492
502878
503312
503793
504197
504656
505118
505533
505935
506314
506660
507001
507341
507683
508047
508555
509074
509537
510045
510545
511009
511479
511964
512410
512866
513311
513742
514153
514602
515044
515449
515912
516360
516777
517184
517573
517949
518357
518743
519172
519609
520012
520406
520801
521166
521533
521902
522294
522661
523022
523414
523794
524160
524523
524901
525272
525613
525976
526330
526663
527017
527366
527727
528086
528454
528846
529222
529598
530039
530505
530958
531448
531915
532313
532749
533184
533599
534075
534529
534991
535425
535827
536266
536738
537230
537706
538195
538578
538963
539349
539720
540114
540593
541088
541611
542118
542589
543084
543546
543964
544421
544865
545271
545683
545873
546119
546480
546862
547249
547604
547959
548331
548699
549079
549528
549998
550475
550946
551387
551817
552306
552773
553192
553651
554074
554472
554913
555352
555765
556224
556707
557094
557455
557818
558174
558549
558948
559440
559941
560446
560926
561428
561901
562338
562784
563246
563653
564088
564537
564959
565344
565714
566086
566439
566817
567237
567662
568195
568667
569128
569616
570067
570496
570955
571372
571779
572238
572726
573154
573635
574073
574534
574998
575426
575928
576416
576836
577294
577736
578109
578471
578840
579198
579584
580102
580571
581069
581534
581977
582460
582889
583299
583763
584214
584648
585118
585577
585991
586452
586879
587293
587735
588155
588559
589011
589432
589843
590310
590755
591180
591642
592101
592507
592960
593372
593763
594193
594619
595020
595486
595967
596378
596835
597314
597739
598164
598635
599058
599442
599850
600044
600264
600570
600921
601285
601680
602229
602723
603231
603736
604203
604699
605178
605616
606057
606503
606931
607346
607789
608243
608659
609129
609587
609998
610430
610850
611243
611671
612083
612490
612944
613386
613806
614261
614691
615081
615518
615923
616320
616745
617150
617519
617882
618245
618596
618974
619462
619936
620437
620927
621355
621825
622290
622714
623147
623618
624043
624444
624891
625324
625725
626163
626573
626973
627408
627839
628254
628721
629216
629656
630086
630523
630937
631364
631851
632307
632748
633205
633645
634053
634501
634947
635357
635788
636224
636621
637054
637516
637932
638320
638742
639155
639558
639971
640375
640740
641075
641423
641755
642097
642451
642813
643217
643627
644006
644399
644785
645148
645503
645950
646354
646736
647117
647505
647875
648247
648626
648998
649341
649689
