68
550
1021
1498
1925
2340
2821
3260
3667
4155
4630
5072
5594
6074
6511
6992
7475
7921
8410
8893
9327
9794
10274
10714
11199
11683
12147
12636
13115
13532
13993
14440
14849
15278
15723
16113
16514
16950
17354
17741
18196
18622
19027
19494
19917
20320
20755
21167
21555
22002
22457
22874
23323
23761
24175
24618
25062
25466
25914
26351
26747
27122
27476
27840
28201
28541
28909
29290
29660
30066
30545
31001
31471
31934
32365
32799
33258
33675
34102
34546
34953
35374
35878
36305
36712
37219
38035
38396
38744
39104
39482
39844
40227
40626
41018
41512
42010
42492
42985
43420
43865
44331
44752
45142
45561
46008
46430
46874
47333
47701
48067
48434
48814
49339
49809
50289
50768
51213
51684
52164
52589
53079
53547
53961
54400
54869
55300
55717
56187
56568
56948
57344
57763
58306
58810
59269
59748
60204
60640
61109
61538
61934
62359
62773
63168
63566
64063
64537
64939
65416
65872
66256
66621
66990
67346
67717
68229
68705
69206
69680
70151
70650
71095
71530
72010
72463
72886
73329
73742
74136
74599
75008
75379
75760
76129
76635
77111
77578
78074
78530
78985
79432
79840
80299
80729
81139
81558
82011
82406
82804
83171
83527
83903
84269
84655
85146
85615
86106
86592
87026
87456
87921
88348
88780
89229
89654
90071
90545
90976
91385
91830
92287
92702
93195
93629
94040
94492
94941
95349
95801
96245
96654
97106
97507
97883
98253
98607
98970
99326
99687
100047
100411
100916
101375
101843
102339
102793
103270
103768
104212
104662
105120
105542
105988
106468
106907
107362
107842
108287
108742
109232
109661
110131
110593
111016
111464
111890
112253
112613
112980
113337
113753
114280
114762
115242
115700
116157
116637
117080
117521
117977
118394
118852
119322
119746
120207
120664
121085
121558
122021
122441
122873
123262
123618
123988
124356
124744
125286
125777
126260
126752
127193
127678
128148
128577
129026
129484
129907
130311
130759
131188
131589
132015
132406
132829
133283
133709
134163
134617
135032
135471
135876
136301
136754
137171
137590
138012
138375
138730
139096
139456
139838
140319
140796
141234
141737
142190
142656
143115
143528
143974
144417
144825
145276
145722
146104
146533
146972
147374
147760
148159
148511
148867
149233
149596
149994
150459
150910
151369
151851
152285
152475
152739
153140
153557
153967
154399
154794
155195
155624
156037
156444
156871
157234
157600
157965
158319
158695
159139
159590
160010
160448
160867
161298
161669
162033
162397
162742
163077
163427
163816
164195
164565
164966
165393
165880
166336
166817
167279
167721
168194
168632
169054
169500
169909
170281
170644
170988
171339
171708
172123
172539
172988
173437
173855
174287
174698
175076
175449
175803
176151
176501
176843
177189
177564
178038
178516
179018
179489
179931
180404
180909
181340
181815
182302
182722
183172
183630
184041
184449
184823
185197
185567
185939
186351
186845
187326
187811
188266
188714
189186
189644
190076
190540
190959
191380
191822
192228
192653
193093
193501
193895
194256
194613
194975
195321
195685
196087
196508
197034
197513
197949
198341
198718
199084
199432
199777
200108
200457
200801
201140
201495
201867
202249
202646
203022
203411
203831
204289
204755
205256
205712
206176
206671
207114
207533
207970
208350
208718
209095
209469
209930
210475
210993
211510
211983
212458
212956
213400
213857
214285
214704
215155
215569
215936
216310
216700
217141
217660
218130
218628
219081
219525
220000
220451
220854
221243
221608
221975
222360
222861
223320
223803
224285
224735
225182
225598
226052
226513
226941
227397
227849
228275
228710
229139
229558
230009
230426
230839
231314
231721
232150
232616
233031
233458
233907
234339
234754
235217
235655
236061
236506
236955
237359
237814
238263
238670
239102
239547
239958
240379
240763
241140
241496
241850
242196
242558
242938
243433
243922
244411
244847
245289
245766
246201
246639
247109
247531
247999
248487
248896
249359
249827
250246
250703
251192
251616
252077
252517
252939
253384
253817
254223
254668
255109
255518
255981
256432
256842
257274
257739
258156
258621
259061
259470
259923
260339
260739
261170
261571
261959
262384
262796
263204
263643
264077
264484
264948
265400
265824
266298
266757
267169
267618
268049
268454
268892
269324
269727
270168
270653
271068
271509
271964
272394
272794
273250
273676
274029
274395
274738
275078
275429
275787
276264
276649
277036
277433
277880
278338
278766
279218
279657
280082
280523
280985
281403
281892
282387
282841
283330
283804
284266
284741
285204
285664
286103
286575
287013
287484
287951
288383
288815
289277
289685
290085
290475
290824
291180
291531
291874
292250
292783
293285
293797
294274
294719
295185
295633
296071
296527
296956
297382
297869
298300
298780
299258
299710
300156
300626
301051
301523
301976
302388
302828
303276
303675
304114
304552
304966
305433
305896
306332
306786
307256
307677
308115
308547
308957
309355
309806
310268
310686
311061
311415
311774
312151
312594
313004
313473
313947
314341
314759
315176
315567
315978
316402
316802
317254
317693
318095
318559
319016
319433
319882
320333
320744
321209
321649
322078
322531
322975
323400
323894
324345
324815
325284
325724
326152
326646
327096
327509
327986
328449
328868
329322
329758
330148
330579
331006
331414
331871
332313
332735
333203
333624
334027
334470
334897
335302
335760
336213
336626
337097
337569
338002
338464
338930
339352
339823
340276
340680
341116
341588
342005
342416
342859
343280
343686
344145
344593
344995
345452
345888
346287
346697
347118
347502
347886
348307
348730
349122
349569
350026
350441
350900
351367
351786
352248
352719
353128
353584
354040
354436
354857
355304
355709
356154
356626
357038
357469
357910
358352
358770
359229
359679
360096
360555
361013
361414
361837
362265
362665
363076
363509
363929
364319
364729
365147
365541
365987
366464
366909
367359
367809
368215
368656
369096
369509
369915
370341
370767
371170
371618
372051
372465
372927
373365
373767
374196
374629
375047
375508
375975
376398
376826
377240
377588
377951
378299
378622
378961
379298
379689
380086
380603
381096
381560
382054
382539
383009
383498
383943
384388
384832
385229
385649
386076
386476
386899
387321
387719
388188
388616
389030
389489
389967
390391
390886
391360
391799
392257
392710
393118
393600
394066
394484
394950
395378
395781
396231
396664
397053
397511
397956
398329
398690
399047
399397
399749
400148
400562
401099
401591
402080
402572
403038
403512
403968
404384
404827
405260
405665
406130
406555
406937
407341
407794
408203
408663
409174
409623
410056
410523
410946
411373
411801
412181
412595
413085
413545
413980
414447
414880
415286
415719
416171
416578
417052
417474
417908
418374
418800
419236
419681
420097
420484
420907
421359
421778
422220
422671
423083
423497
423921
424331
424719
425140
425558
425940
426374
426811
427211
427640
428095
428491
428913
429298
429646
430000
430354
430698
431124
431645
432131
432627
433104
433546
434025
434447
434862
435297
435763
436168
436630
437081
437487
437925
438372
438764
439176
439607
440014
440423
440902
441399
441836
442314
442778
443206
443663
444136
444537
444996
445445
445848
446293
446736
447139
447529
447983
448450
448861
449322
449784
450185
450645
451100
451499
451957
452402
452805
453222
453696
454131
454559
455006
455438
455830
456263
456687
457073
457488
457907
458293
458691
459136
459557
459969
460404
460858
461263
461748
462215
462628
463082
463561
463995
464452
464927
465362
465779
466240
466695
467106
467554
468003
468404
468837
469271
469665
470110
470563
470992
471384
471824
472250
472647
473087
473536
473942
474368
474810
475215
475624
476060
476439
476802
477156
477498
477846
478194
478546
478892
479241
479619
480145
480610
481069
481571
482030
482487
482992
483464
483872
484253
484624
484962
485308
485649
485993
486356
486737
487146
487675
488176
488647
489155
489630
490087
490561
491022
491508
491985
492412
492892
493356
493782
494256
494687
495078
495511
495948
496358
496821
497281
497697
498151
498582
498988
499458
499928
500342
500813
501263
501665
502097
502494
502881
503315
503796
504200
504660
505121
505538
505940
506318
506664
507006
507345
507687
508051
508560
509077
509541
510049
510549
511014
511483
511967
512414
512869
513314
513745
514157
514606
515048
515452
515916
516363
516780
517188
517578
517954
518362
518748
519176
519613
520015
520410
520805
521168
521536
521905
522296
522664
523024
523416
523795
524161
524524
524903
525274
525615
525978
526331
526666
527021
527368
527729
528088
528456
528847
529224
529599
530040
530506
530960
531450
531916
532315
532751
533185
533601
534077
534530
534993
535427
535829
536269
536740
537232
537710
538197
538581
538967
539352
539724
540119
540597
541091
541615
542122
542594
543087
543549
543968
544426
544868
545275
545687
545882
546121
546484
546865
547252
547608
547964
548335
548703
549083
549532
550002
550479
550949
551390
551821
552309
552776
553195
553654
554076
554475
554916
555355
555768
556227
556709
557097
557459
557821
558177
558552
558951
559444
559944
560448
560928
561431
561903
562341
562787
563248
563655
564091
564539
564961
565347
565717
566088
566442
566820
567239
567666
568198
568670
569131
569618
570069
570499
570957
571375
571781
572240
572728
573158
573638
574076
574537
575001
575429
575931
576419
576840
577298
577739
578113
578476
578844
579202
579588
580107
580575
581073
581538
581982
582464
582892
583304
583766
584217
584651
585121
585580
585995
586455
586882
587297
587738
588157
588563
589014
589435
589847
590313
590758
591184
591645
592103
592510
592963
593375
593767
594196
594621
595023
595489
595970
596381
596839
597317
597742
598167
598637
599060
599445
599853
600051
600266
600574
600924
601288
601684
602232
602725
603233
603738
604205
604701
605180
605619
606060
606505
606933
607348
607791
608245
608662
609131
609589
610001
610433
610853
611245
611673
612086
612494
612947
613389
613809
614265
614694
615085
615521
615926
616325
616749
617154
617523
617887
618249
618600
618979
619466
619941
620441
620930
621359
621829
622293
622717
623151
623620
624046
624448
624893
625327
625729
626166
626576
626976
627411
627841
628257
628723
629218
629659
630090
630525
630941
631367
631854
632310
632752
633208
633649
634057
634504
634951
635361
635792
636227
636625
637057
637519
637935
638324
638745
639158
639562
639974
640377
640742
641078
641426
641758
642100
642454
642817
643220
643629
644009
644404
644789
645152
645508
645954
646357
646739
647120
647508
647877
648249
648629
649000
649344
649692
