228
679
1104
1538
1975
2430
2869
3294
3729
4142
4579
5003
5442
5864
6311
6743
7185
7617
8058
8485
8922
9341
9781
10204
10647
11072
11503
11936
12373
12797
13222
13657
14085
14512
14967
15404
15851
16302
16754
17186
17635
18075
18524
18967
19401
19854
20301
20759
21207
21637
22079
22520
22972
23409
23885
24347
24801
25239
25674
26096
26526
26939
27382
27837
28262
28712
29124
29560
30007
30434
30875
31305
31740
32183
32627
33071
33503
33942
34382
34828
35253
35675
36113
36572
37018
37466
37919
38355
38811
39261
39701
40159
40622
41071
41502
41945
42364
42809
43234
43665
44097
44542
44961
45409
45847
46284
46731
47155
47594
48043
48478
48915
49332
49772
50196
50633
51059
51496
51937
52368
52813
53231
53652
54091
54519
54964
55380
55817
56261
56698
57129
57558
58004
58421
58859
59280
59708
60146
60574
61006
61416
61856
62284
62719
63137
63562
63993
64405
64852
65270
65698
66132
66566
66999
67430
67876
68306
68749
69184
69608
70055
70498
70932
71369
71813
72252
72701
73127
73562
73990
74418
74864
75291
75735
76186
76650
77089
77531
77977
78410
78858
79296
79754
80213
80663
81108
81545
81992
82428
82867
83301
83733
84182
84620
85070
85499
85931
86372
86807
87237
87672
88120
88559
89008
89444
89868
90307
90744
91164
91595
92037
92459
92909
93342
93762
94193
94623
95051
95455
95874
96285
96721
97129
97561
97985
98402
98815
99221
99620
100031
100419
100815
101190
101570
101937
102313
102686
103045
103408
103761
104118
104469
104818
105159
105494
105829
106163
106500
106844
107173
107522
107866
108188
108565
108923
109269
109492
109875
110237
110584
110945
111305
111672
112062
112444
112819
113182
113547
113914
114286
114656
115036
115412
115782
116175
116550
116937
117320
117704
118104
118494
118918
119304
119696
120079
120455
120845
121224
121609
122001
122385
122772
123143
123524
123911
124314
124697
125097
125466
125853
126234
126615
127006
127377
127769
128150
128529
128919
129298
129680
130056
130437
130818
131200
131579
131983
132366
132772
133148
133550
133933
134347
134735
135157
135552
135956
136360
136764
137165
137554
137944
138347
138739
139138
139519
139895
140290
140691
141094
141496
141887
142293
142676
143090
143483
143902
144305
144734
145143
145557
145954
146381
146785
147211
147606
148017
148408
148813
149205
149604
150004
150404
150838
151240
151642
152035
152436
152815
153201
153590
153980
154365
154764
155152
155558
155950
156365
156769
157171
157559
157975
158377
158791
159185
159587
159991
160339
160808
161229
161645
162062
162472
162884
163290
163687
164101
164495
164916
165317
165742
166171
166596
167018
167448
167850
168277
168682
169122
169525
169953
170359
170779
171181
171607
172009
172422
172823
173232
173630
174021
174420
174810
175213
175593
175990
176368
176759
177145
177547
177949
178369
178787
179202
179613
180031
180456
180891
181312
181726
182164
182580
183022
183452
183888
184316
184757
185189
185633
186057
186489
186903
187318
187738
188173
188592
189041
189471
189881
190309
190709
191115
191493
191878
192306
192696
193111
193507
193906
194295
194649
195037
195411
195774
196159
196522
196895
197269
197628
198389
198751
199134
199515
199865
200229
200580
200949
201335
201734
202124
202533
202930
203329
203736
204140
204549
204959
205365
205779
206188
206596
207001
207397
207799
208202
208609
209007
209411
209802
210218
210615
211028
211420
211819
212218
212610
213007
213387
213784
214192
214589
214990
215389
215767
216173
216557
216969
217353
217748
218146
218535
218933
219317
219705
219996
220468
220857
221249
221535
221995
222389
222796
223183
223570
223950
224349
224734
225141
225526
225921
226315
226719
227130
227540
227936
228332
228743
229153
229543
229939
230347
230733
231136
231517
231911
232306
232703
233102
233487
233876
234261
234662
235058
235457
235838
236242
236629
237039
237433
237831
238233
238634
239041
239440
239843
240256
240667
241079
241485
241901
242320
242739
243157
243566
243997
244428
244856
245266
245677
246098
246491
246895
247266
247662
248051
248436
248849
249231
249630
250031
250427
250837
251215
251609
251994
252384
252781
253162
253555
253954
254366
254758
255159
255540
255935
256324
256724
257125
257534
257934
258356
258771
259189
259591
260013
260414
260825
261219
261620
262031
262431
262843
263229
263631
264029
264432
264836
265243
265641
266061
266449
266865
267251
267653
268054
268451
268862
269266
269672
270080
270488
270896
271308
271702
272123
272526
272949
273348
273753
274163
274577
275005
275409
275819
276230
276640
277047
277453
277858
278269
278670
279086
279481
279887
280282
280688
281081
281473
281866
282282
282692
283105
283508
283914
284334
284741
285159
285557
285975
286382
286800
287203
287643
288075
288486
288898
289304
289706
290113
290515
290938
291349
291746
292175
292584
293017
293423
293822
294223
294643
295053
295475
295883
296199
296706
297120
297537
297963
298359
298775
299169
299578
299991
300397
300832
301258
301685
302104
302522
302933
303342
303731
304133
304523
304920
305318
305711
306131
306528
306954
307354
307763
308177
308591
309007
309409
309815
310233
310655
311080
311483
311894
312300
312722
313129
313546
313957
314381
314803
315222
315629
316053
316470
316898
317320
317725
318160
318575
319006
319413
319840
320248
320677
321085
321502
321919
322334
322769
323173
323587
324020
324438
324861
325275
325685
326121
326539
326963
327382
327806
328219
328646
329045
329452
329866
330265
330679
331071
331469
331855
332262
332665
333065
333446
333833
334235
334664
335070
335492
335900
336317
336729
337144
337551
337914
338368
338806
339227
339670
340103
340527
340949
341365
341777
342192
342614
343016
343433
343847
344267
344683
345105
345526
345955
346354
346785
347193
347600
348016
348443
348856
349273
349681
350101
350523
350944
351354
351786
352202
352642
353079
353507
353937
354354
354781
355193
355599
356016
356431
356853
357280
357696
358116
358539
358946
359230
359738
360147
360589
361001
361423
361840
362255
362671
363090
363502
363916
364309
364721
365117
365531
365946
366367
366784
367213
367629
368058
368475
368898
369311
369742
370165
370602
371016
371440
371865
372269
372701
373118
373519
373954
374386
374807
375214
375641
375968
376464
376863
377204
377695
378094
378471
378943
379356
379667
380171
380598
381003
381414
381814
382165
382527
382873
383234
383593
384122
384504
384954
385347
385766
386166
386616
387034
387451
387864
388287
388706
389123
389526
389954
390369
390807
391223
391690
392136
392576
392992
393411
393820
394238
394665
395090
395506
395934
396350
396767
397172
397584
397991
398414
398824
399229
399655
400055
400483
400881
401315
401744
402159
402592
403017
403443
403877
404313
404746
405172
405596
406020
406463
406876
407297
407720
408142
408574
409002
409435
409875
410313
410739
411184
411633
412055
412499
412926
413339
413767
414174
414616
415029
415453
415868
416298
416711
417137
417548
417964
418371
418780
419178
419588
419992
420403
420808
421206
421615
422021
422453
422873
423299
423722
424148
424577
425011
425428
425857
426291
426718
427132
427566
427977
428419
428828
429244
429658
430071
430480
430899
431293
431709
432114
432532
432918
433316
433724
434146
434558
434974
435387
435811
436233
436653
437066
437498
437900
438327
438734
438988
439464
439898
440339
440756
441178
441597
442021
442436
442850
443253
443680
444095
444532
444938
445361
445776
446207
446605
447027
447447
447868
448294
448709
449112
449542
449944
450367
450772
451174
451586
451989
452405
452804
453216
453629
454049
454460
454871
455278
455699
456115
456536
456950
457382
457795
458229
458638
459056
459467
459891
460321
460756
461178
461609
462035
462463
462878
463304
463707
464136
464552
464976
465405
465835
466267
466685
467095
467521
467954
468363
468780
469199
469615
470024
470439
470844
471260
471671
472086
472491
472895
473296
473695
474090
474457
474819
475165
475530
475903
476265
476625
476999
477372
477753
478139
478510
478914
479300
479684
480074
480461
480854
481252
481655
482067
482490
482895
483330
483730
484148
484538
484933
485317
485707
486100
486492
486874
487271
487655
488044
488448
488825
489237
489621
490036
490422
490819
491224
491607
492008
492397
492788
493173
493558
493954
494352
494750
495156
495554
495948
496361
496758
497174
497556
497961
498341
498732
499128
499515
499914
500296
500689
501070
501458
501838
502223
502591
502968
503341
503718
504100
504484
504861
505262
505588
506039
506409
506690
507159
507535
507848
508321
508688
509081
509461
509853
510221
510604
510977
511366
511745
512132
512512
512907
513289
513686
514068
514446
514812
515199
515576
515968
516340
516719
517102
517485
517868
518249
518616
518999
519358
519744
520107
520491
520874
521258
521654
522031
522417
522787
523173
523555
523942
524319
524701
525087
525481
525870
526255
526628
527017
527382
527766
528129
528510
528895
529283
529672
530056
530435
530827
531209
531599
531973
532347
532718
533111
533491
533890
534270
534647
535028
535413
535800
536184
536542
536924
537282
537668
538030
538409
538773
539148
539525
539897
540247
540597
540969
541338
541706
542061
542417
542787
543141
543453
543822
544171
544528
544902
545258
545622
545964
546314
546672
547034
547398
547774
548156
548537
548945
549343
549748
550134
550534
550937
551356
551765
552169
552570
552980
553386
553782
554168
554561
554956
555353
555761
556141
556537
556922
557315
557712
558085
558476
558846
559226
559613
559992
560376
560761
561133
561516
561908
562289
562689
563064
563463
563839
564229
564618
565004
565293
565787
566181
566588
566967
567369
567739
568130
568510
568901
569286
569673
570052
570420
570782
571137
571501
571856
572217
572618
573011
573425
573811
574190
574585
574957
575348
575709
576079
576457
576812
577184
577539
577902
578285
578670
579050
579422
579779
580157
580532
580893
581286
581652
582040
582416
582805
583192
583577
583942
584310
584672
585036
585409
585768
586117
586499
586862
587240
587601
587959
588318
588678
589049
589416
589800
590178
590566
590947
591327
591726
592106
592501
592871
593268
593640
594011
594389
594752
595125
595472
595845
596206
596561
596919
597260
597612
597940
598296
598644
599000
599246
599646
600014
600388
600731
601085
601405
601744
602093
602426
602776
603116
603460
603813
604172
604524
604874
605230
605582
605940
606302
606652
607021
607380
607731
608091
608446
608797
609155
609484
609828
610193
610535
610889
611229
611583
611917
612268
612603
612948
613285
613642
613985
614332
614677
615024
615376
615715
616071
616410
616644
617073
617433
617786
618129
618474
618832
619174
619508
619840
620189
620537
620895
621261
621623
621985
622361
622721
623095
623450
623819
624177
624527
624920
625284
625634
626014
626378
626748
627101
627464
627849
628231
628630
629047
629457
629889
630285
630705
631101
631498
631898
632285
632695
633073
633460
633864
634236
634626
635019
635396
635786
636150
636523
636895
637259
637630
638003
638359
638751
639121
639479
639842
640218
640598
640955
641316
641681
642043
642427
642796
643152
643525
643903
644268
644644
645025
645396
645763
646137
646537
646907
647288
647672
648043
648412
648784
649141
649508
649875
