242
692
1118
1551
1988
2442
2883
3306
3743
4156
4592
5015
5455
5877
6325
6755
7198
7631
8071
8499
8935
9356
9794
10218
10660
11086
11516
11950
12385
12811
13236
13671
14098
14526
14980
15417
15864
16315
16767
17200
17649
18088
18536
18981
19414
19867
20316
20771
21220
21650
22092
22532
22986
23422
23897
24361
24814
25251
25687
26108
26538
26952
27395
27851
28276
28724
29137
29574
30021
30449
30888
31318
31754
32196
32641
33084
33516
33955
34396
34841
35265
35688
36125
36585
37032
37479
37933
38369
38825
39274
39715
40171
40635
41086
41515
41959
42378
42822
43247
43679
44109
44555
44973
45421
45861
46297
46744
47168
47607
48056
48491
48927
49345
49785
50209
50645
51073
51507
51950
52381
52826
53244
53665
54104
54532
54978
55392
55830
56274
56710
57142
57570
58016
58435
58872
59294
59721
60159
60586
61018
61429
61870
62298
62731
63151
63573
64006
64420
64865
65284
65711
66145
66579
67012
67443
67890
68319
68762
69197
69621
70068
70511
70945
71383
71828
72264
72714
73142
73575
74003
74431
74877
75304
75748
76199
76663
77100
77544
77990
78422
78872
79309
79768
80227
80676
81120
81559
82005
82441
82879
83315
83747
84194
84635
85082
85512
85946
86384
86821
87252
87685
88133
88574
89021
89457
89882
90320
90757
91177
91608
92050
92472
92923
93354
93775
94208
94636
95063
95466
95888
96298
96735
97142
97574
97999
98414
98829
99234
99634
100043
100433
100828
101204
101584
101951
102321
102693
103053
103411
103764
104125
104472
104826
105163
105501
105835
106173
106505
106850
107182
107527
107873
108182
108570
108931
109277
109483
109881
110244
110590
110953
111312
111680
112069
112443
112812
113172
113540
113905
114279
114647
115030
115402
115775
116165
116542
116928
117309
117696
118097
118488
118915
119306
119703
120090
120462
120852
121230
121617
122006
122391
122776
123148
123529
123920
124316
124705
125100
125472
125858
126237
126625
127011
127384
127774
128156
128537
128926
129308
129685
130065
130441
130825
131205
131586
131989
132373
132777
133153
133554
133941
134350
134743
135159
135560
135960
136371
136771
137174
137559
137953
138350
138748
139142
139525
139899
140297
140697
141101
141499
141896
142295
142683
143095
143489
143905
144311
144741
145150
145565
145963
146389
146795
147217
147613
148024
148413
148819
149208
149611
150007
150411
150841
151245
151646
152043
152442
152822
153205
153593
153987
154369
154767
155154
155560
155956
156367
156776
157174
157569
157980
158386
158795
159193
159591
160000
160345
160813
161234
161651
162068
162480
162889
163295
163695
164106
164502
164921
165324
165748
166177
166603
167026
167455
167857
168282
168691
169131
169533
169959
170366
170786
171188
171613
172017
172429
172829
173238
173633
174030
174422
174818
175217
175600
175996
176375
176763
177151
177553
177957
178374
178796
179204
179618
180036
180462
180894
181319
181731
182170
182586
183028
183456
183895
184321
184762
185195
185636
186064
186493
186909
187325
187741
188180
188599
189049
189477
189888
190314
190717
191121
191496
191886
192313
192706
193117
193513
193911
194298
194653
195044
195418
195783
196165
196529
196908
197280
197640
198023
198406
198766
199149
199530
199879
200242
200594
200963
201350
201747
202139
202547
202944
203344
203751
204154
204563
204973
205379
205793
206201
206612
207015
207412
207813
208216
208624
209022
209425
209817
210232
210630
211043
211433
211832
212233
212625
213021
213401
213797
214206
214601
215005
215403
215781
216187
216571
216984
217368
217762
218159
218549
218947
219333
219719
219959
220481
220871
221261
221529
222006
222403
222811
223198
223583
223965
224363
224749
225154
225540
225932
226326
226732
227130
227534
227931
228321
228737
229150
229552
229954
230360
230748
231149
231530
231926
232319
232718
233116
233500
233891
234276
234677
235071
235470
235850
236256
236643
237053
237446
237845
238244
238649
239053
239455
239854
240271
240681
241093
241498
241916
242333
242753
243169
243578
244012
244441
244871
245280
245692
246112
246505
246909
247281
247675
248065
248450
248863
249244
249644
250046
250442
250851
251228
251623
252008
252398
252795
253175
253568
253969
254381
254774
255173
255554
255947
256337
256739
257139
257547
257947
258368
258785
259202
259604
260029
260426
260839
261232
261634
262044
262445
262855
263244
263644
264043
264444
264850
265257
265655
266074
266463
266878
267264
267666
268068
268463
268876
269280
269686
270094
270503
270911
271320
271717
272136
272539
272963
273363
273767
274175
274592
275019
275421
275833
276244
276654
277062
277467
277872
278282
278686
279100
279495
279901
280297
280703
281095
281488
281879
282296
282707
283119
283521
283929
284346
284756
285171
285571
285990
286394
286814
287217
287657
288087
288501
288912
289319
289719
290127
290530
290952
291363
291761
292188
292600
293030
293437
293837
294237
294658
295066
295489
295899
296162
296719
297134
297551
297977
298373
298790
299184
299593
300006
300412
300846
301273
301698
302118
302538
302946
303356
303744
304147
304539
304935
305332
305724
306145
306543
306968
307369
307776
308191
308606
309021
309422
309829
310248
310670
311092
311498
311908
312313
312736
313142
313559
313971
314396
314817
315235
315644
316064
316484
316912
317334
317739
318173
318589
319019
319426
319853
320261
320691
321096
321516
321932
322347
322782
323188
323600
324033
324453
324875
325288
325698
326136
326554
326976
327395
327822
328233
328660
329060
329466
329880
330278
330691
331087
331482
331870
332277
332679
333077
333460
333848
334249
334678
335083
335506
335914
336330
336743
337158
337563
337927
338381
338820
339241
339684
340117
340542
340962
341378
341791
342206
342628
343030
343447
343860
344281
344698
345119
345539
345969
346368
346799
347205
347614
348029
348459
348869
349287
349695
350116
350536
350956
351368
351801
352214
352654
353094
353521
353951
354369
354793
355205
355612
356030
356446
356867
357292
357711
358128
358553
358957
359195
359750
360161
360602
361015
361435
361855
362268
362685
363103
363516
363928
364323
364735
365132
365544
365960
366380
366799
367226
367643
368072
368490
368911
369325
369757
370179
370617
371031
371452
371880
372283
372715
373131
373534
373968
374403
374821
375229
375654
375930
376478
376875
377170
377709
378109
378431
378957
379371
379630
380186
380611
381019
381423
381804
382156
382518
382864
383225
383581
384135
384478
384968
385362
385779
386181
386631
387047
387464
387878
388301
388721
389137
389538
389969
390383
390819
391236
391706
392149
392591
393006
393426
393832
394253
394679
395103
395519
395949
396364
396781
397185
397599
398004
398429
398835
399244
399669
400070
400496
400896
401327
401758
402173
402608
403030
403458
403889
404328
404758
405187
405611
406034
406478
406891
407311
407734
408157
408589
409014
409450
409886
410327
410753
411199
411645
412070
412514
412941
413353
413780
414189
414631
415044
415467
415883
416312
416723
417150
417562
417978
418383
418793
419190
419603
420004
420418
420822
421220
421630
422035
422467
422888
423313
423736
424161
424592
425025
425444
425871
426306
426732
427147
427580
427992
428433
428843
429259
429673
430087
430495
430914
431308
431724
432130
432546
432933
433331
433738
434161
434570
434988
435402
435824
436247
436668
437079
437512
437914
438341
438748
439002
439477
439911
440352
440771
441192
441612
442036
442451
442864
443267
443694
444110
444545
444951
445376
445791
446221
446619
447040
447462
447881
448309
448725
449123
449556
449957
450381
450784
451189
451601
452004
452418
452818
453229
453644
454064
454474
454885
455293
455712
456129
456551
456964
457395
457809
458243
458653
459071
459482
459906
460336
460769
461193
461624
462049
462477
462890
463319
463720
464150
464566
464990
465418
465850
466280
466697
467107
467534
467966
468376
468794
469213
469627
470037
470451
470859
471274
471684
472099
472504
472909
473309
473703
474097
474464
474823
475173
475536
475909
476270
476635
477005
477379
477761
478144
478520
478917
479306
479690
480078
480470
480859
481260
481660
482076
482498
482903
483334
483739
484156
484545
484939
485326
485715
486104
486500
486880
487278
487660
488052
488452
488833
489240
489627
490041
490427
490827
491226
491616
492013
492405
492792
493179
493562
493959
494359
494753
495163
495557
495955
496368
496764
497180
497562
497965
498346
498740
499133
499522
499917
500303
500694
501079
501461
501845
502225
502599
502973
503349
503725
504108
504487
504868
505266
505560
506044
506417
506661
507165
507539
507822
508328
508697
509056
509466
509858
510228
510608
510983
511369
511751
512135
512517
512912
513296
513692
514072
514449
514818
515203
515582
515972
516343
516725
517108
517491
517874
518253
518620
519003
519363
519749
520114
520495
520879
521266
521657
522036
522420
522795
523176
523563
523944
524324
524706
525095
525487
525878
526259
526636
527020
527388
527770
528137
528513
528904
529286
529677
530059
530443
530832
531215
531604
531979
532350
532723
533114
533500
533894
534276
534650
535035
535420
535808
536188
536549
536928
537287
537674
538038
538414
538781
539153
539531
539899
540252
540604
540978
541349
541715
542067
542424
542794
543147
543458
543823
544173
544529
544903
545264
545624
545966
546317
546678
547035
547399
547778
548158
548542
548947
549349
549750
550138
550537
550941
551360
551767
552173
552574
552986
553389
553786
554171
554567
554959
555359
555765
556147
556541
556926
557322
557714
558091
558479
558851
559231
559617
560000
560379
560767
561136
561523
561915
562299
562694
563070
563465
563846
564231
564626
565007
565268
565790
566186
566592
566974
567371
567745
568133
568517
568903
569291
569675
570056
570425
570789
571143
571508
571861
572225
572621
573020
573430
573817
574195
574591
574962
575354
575714
576087
576463
576819
577190
577544
577910
578292
578675
579060
579427
579786
580163
580537
580902
581292
581661
582046
582423
582810
583200
583582
583949
584320
584678
585044
585417
585773
586126
586503
586866
587243
587605
587961
588323
588681
589054
589420
589804
590181
590571
590951
591332
591729
592108
592503
592876
593272
593644
594014
594390
594756
595128
595476
595849
596210
596565
596923
597265
597615
597944
598301
598647
599004
599229
599647
600019
600391
600737
601089
601408
601749
602098
602429
602781
603120
603465
603816
604178
604527
604879
605232
605585
605943
606304
606657
607026
607386
607735
608100
608450
608804
609159
609490
609832
610196
610541
610892
611234
611585
611922
612272
612607
612950
613289
613646
613987
614337
614681
615031
615379
615720
616074
616411
616628
617075
617438
617789
618133
618478
618833
619177
619512
619845
620195
620538
620896
621265
621625
621991
622363
622725
623096
623453
623825
624179
624531
624923
625288
625638
626018
626381
626751
627104
627470
627854
628235
628636
629048
629463
629894
630291
630710
631106
631504
631902
632291
632701
633077
633466
633870
634240
634632
635022
635403
635790
636153
636529
636897
637263
637633
638004
638361
638756
639124
639480
639845
640223
640600
640956
641321
641683
642046
642433
642799
643154
643526
643907
644269
644646
645028
645397
645765
646141
646539
646910
647292
647675
648043
648414
648785
649145
649509
649875
