1602
6721
8734
12904
14556
15594
17324
18380
21113
22051
25315
25791
26003
27102
27646
28198
29309
30289
30773
31779
32773
37186
38806
39315
39496
41914
46276
54049
65629
66164
67664
68188
68698
69209
71256
73314
73776
74270
78562
79129
79456
79652
80692
81173
82133
82278
82440
82776
82934
83289
83694
83835
84356
84654
84900
85109
85292
85741
86853
87377
87759
88039
90452
90701
90958
91514
91736
91956
92176
92638
93190
94284
94747
94984
95341
96365
96801
97126
97464
97680
98914
100001
101376
102089
104556
106295
107114
107345
107668
107923
108229
108523
109001
109339
109911
110717
110965
111229
111780
112660
113084
113293
113624
113834
114099
114487
114760
114853
116438
118213
120436
122462
122702
123065
123340
124537
124902
125190
125389
127279
127486
127715
128419
128983
131452
133101
133623
139254
141246
142232
143994
146447
146942
147910
154440
155983
157013
157951
158823
158987
159931
160928
161553
164910
165760
165929
167752
168679
169190
169393
169920
172519
173640
174220
174785
175912
179963
181423
182466
183226
185229
188011
188545
194190
202611
203145
204177
205681
206218
206696
207155
208411
209839
210710
210884
211849
212444
213386
213901
215975
217293
217473
218095
218474
218739
219399
219680
219882
219987
220194
220284
220572
220843
221853
222269
223666
223914
225659
225852
226395
226770
227028
227343
227694
228052
228521
228981
230087
230725
230895
231356
231856
232059
232484
232985
233245
233568
233809
234010
234248
234512
234831
235065
235692
236375
236677
237165
237310
237811
238726
238911
239087
239289
239905
240257
241265
242156
243131
243317
243582
244978
246426
246643
247442
247778
247977
248831
249094
250429
250517
252806
255839
257690
259586
261537
263024
263468
266902
267410
269411
271016
271179
271537
272229
272447
272851
273160
273692
273868
274091
274322
274816
275059
275408
275574
275900
276107
276533
276769
279932
280232
280385
280613
280910
281310
281836
281973
282195
282544
282985
283196
283376
283735
284151
285256
285378
286139
286413
286624
286915
287147
287457
287651
288010
288226
288583
288733
288928
289110
289791
290255
290684
291039
291272
291515
291723
291954
292177
292372
292589
293011
293399
293675
294038
294309
294530
294805
295033
295256
295493
295727
295949
296170
296397
296632
296874
297121
297345
297597
297795
298024
298291
298460
298707
298984
299216
299444
299658
299874
300089
300311
300544
300758
300988
301211
301420
301693
301913
302135
302319
302538
302754
302967
303193
303442
303684
303883
304076
304279
304495
304726
304925
305159
305377
305596
305813
306187
306452
306705
306853
307052
307268
307489
307742
307959
308181
308375
308565
308765
308958
309166
309397
309648
309897
310276
310483
310770
311133
311325
311534
311761
311974
312208
312437
312615
312982
313390
313631
314345
314583
314805
314998
315316
315631
315899
316115
316298
316567
316864
317522
320944
321811
322073
326267
326534
326919
331781
332586
335871
336104
337445
338468
338705
340211
340762
342413
347108
348035
349026
349964
351410
351886
352325
353663
354300
354804
355290
355604
355798
356370
356560
357038
357565
357941
360888
361082
361227
361611
361827
362144
362353
362596
362771
363045
363240
363532
363748
364071
364271
364528
364717
365005
365217
365503
365695
365988
366209
366479
366677
366963
367153
367405
367590
367908
368144
368451
368651
368920
369114
369369
369569
369877
370094
370402
370596
370897
371115
371403
371597
371884
372084
372406
372623
372930
373143
373707
373916
374355
374613
374917
375169
375413
375664
375885
376161
376431
376682
376954
377246
377495
377744
377981
378236
378495
378790
379041
379324
379703
379907
380296
380498
380917
381132
381526
381740
382089
382314
382622
382815
383169
383461
383763
383962
384245
384447
384750
384959
385315
385525
385688
385888
386084
386300
386610
386817
387115
387317
387638
387857
388177
388375
388661
388842
389162
389389
389743
389951
390260
390469
390765
390956
391286
391488
391830
392037
392400
392610
392925
393113
393434
393663
393998
394240
394572
394777
394915
395355
395566
395932
396137
396333
396592
396905
397094
397522
397723
398084
398339
398664
399039
399235
399578
399761
400146
400383
400774
401001
401311
401560
401842
402041
402350
402569
402735
403150
403369
403661
403855
404126
404368
404663
404934
405087
405463
405672
405932
406136
406431
406630
406898
407076
407452
407665
407982
408160
408312
408542
408954
409165
409508
409712
409998
410190
410503
410698
411032
411238
411544
411747
412065
412257
412539
412733
413028
413249
413611
413818
413985
414363
414550
414844
415107
415386
415657
415895
416156
416415
416682
416895
417134
417357
417501
417975
418193
418569
418788
419059
419285
419611
419897
420146
420418
420627
420898
421097
421394
421609
421934
422142
422466
422693
422883
423248
423436
423747
423958
424283
424503
424827
425035
425302
425497
425831
426043
426219
426626
426832
427127
427339
427635
427819
428097
428299
428623
428863
429171
429371
429613
429803
430118
430332
430686
430892
431199
431396
431562
431945
432143
432421
432629
432916
433114
433452
433667
433952
434150
434428
434647
434995
435224
435527
435724
436007
436195
436482
436706
436999
437199
437500
437717
438004
438203
438464
438659
438941
439139
439459
439694
439988
440186
440453
440657
440945
441146
441480
441690
442009
442205
442473
442682
442994
443193
443468
443688
444043
444246
444528
444727
444986
445181
445475
445716
446008
446226
446500
446701
446988
447182
447478
447679
447972
448170
448466
448677
448955
449155
449403
449599
449921
450145
450457
450649
450896
451111
451392
451586
451853
452083
452383
452592
452893
453107
453391
453565
453824
454045
454300
454520
454879
455073
455370
455559
455870
456082
456407
456613
456927
457144
457426
457629
457938
458139
458407
458619
458997
459223
459551
459731
459993
460201
460347
460796
461015
461360
461626
461881
462150
462395
462596
462883
463094
463399
463615
463790
464137
464334
464590
464797
465080
465322
465628
465828
466083
466288
466534
466737
467033
467237
467530
467733
468023
468242
468519
468719
468973
469172
469456
469688
470012
470224
470489
470663
470927
471145
471456
471688
471976
472174
472456
472659
472932
473135
473414
473611
473908
474143
474423
474635
474937
475121
475436
475709
475991
476278
476543
476743
477007
477251
477552
477770
478070
478279
478558
478774
479120
479314
479615
479818
479994
480412
480655
480987
481216
481478
481662
481977
482204
482487
482708
483088
483300
483634
483840
484113
484313
484607
484834
485150
485358
485630
485810
486101
486315
486632
486853
487125
487332
487630
487830
488122
488365
488583
488847
489103
489382
489642
489893
490066
490338
490561
490844
491064
491366
491573
491877
492069
492385
492587
492875
493068
493366
493583
493851
494058
494348
494540
494780
494977
495289
495517
495817
496018
496276
496467
496725
496937
497223
497435
497740
497949
498086
498476
498670
498952
499140
499402
499614
499923
500147
500449
500639
500906
501097
501346
501583
501935
502152
502436
502641
502892
503098
503386
503587
503882
504082
504378
504615
504903
505106
505337
505529
505826
506035
506355
506589
506857
507052
507308
507513
507691
508042
508250
508537
508757
509011
509204
509495
509719
509950
510166
510402
510688
510948
511211
511412
511630
511859
512052
512221
512574
512784
513068
513262
513534
513744
514024
514225
514483
514692
514979
515175
515474
515692
515938
516116
516369
516586
516896
517113
517405
517622
517890
518069
518344
518561
518841
519058
519343
519568
519870
520072
520349
520538
520789
520999
521301
521526
521850
522047
522312
522507
522795
523005
523313
523526
523817
524029
524291
524496
524797
524989
525266
525470
525768
526008
526300
526494
526743
526935
527196
527408
527697
527931
528217
528408
528679
528896
529159
529364
529619
529832
530111
530309
530596
530817
531069
531253
531499
531707
532007
532226
532527
532724
532900
533197
533429
533652
533913
534159
534392
534629
534898
535153
535389
535602
535834
536079
536320
536587
536860
537063
537320
537511
537811
538021
538201
538444
538841
539049
539328
539556
539819
540022
540293
540482
540782
541013
541327
541533
541799
541990
542266
542453
542771
543070
543340
543586
543796
544065
544338
544602
544845
545108
545344
545657
545866
546237
546424
546735
547023
547318
547594
547847
548091
548299
548533
548882
549139
549276
549743
549936
550323
550594
550753
551106
551310
551666
551956
552163
552473
552666
552932
553147
553316
553734
553939
554239
554448
554712
554903
555246
555439
555740
555964
556312
556534
556845
557023
557306
557509
557857
558079
558429
558676
558869
559181
559405
559698
559914
560227
560498
560702
561077
561293
561638
561828
562185
562529
562838
563116
563378
563648
563904
564176
564479
564767
565030
565292
565519
565876
566078
566430
566649
567030
567274
567604
567836
568396
568646
568964
569253
569506
569757
569994
570245
570496
570758
570961
571239
571460
571789
571993
572274
572484
572749
572959
573270
573504
573867
574042
574379
574589
574946
575225
575500
575779
576038
576293
576544
576785
577017
577231
577538
577795
578212
578392
578741
578925
579266
579532
579838
580106
580359
580629
580856
581134
581406
581681
581959
582246
582534
582737
583084
583267
583668
583895
584303
584585
584770
585107
585337
585679
585971
586255
586526
586767
586962
587349
587522
587838
588044
588386
588624
588916
589184
589413
589660
589904
590187
590458
590724
590948
591298
591508
591857
592042
592397
592615
593005
593290
593543
593764
594015
594246
594512
594799
595046
595326
595557
595797
596072
596310
596523
596881
597113
597481
597686
598033
598270
598561
598864
599194
599493
599732
599994
600204
600452
600658
600921
601064
601279
601667
601960
602240
602453
602728
602942
603347
603556
603940
604226
604404
604590
604962
605197
605562
605875
606140
606364
606658
606871
607289
607494
607876
608179
608474
608734
608971
609170
609512
609718
610118
610331
610682
610944
611225
611510
611800
612081
612365
612637
612905
613163
613405
613652
613891
614117
614424
614662
615033
615215
615546
615800
616047
616352
616633
616818
617137
617378
617646
617908
618091
618249
618633
618860
619183
619438
619674
619895
620141
620424
620695
620983
621199
621476
621732
621995
622260
622524
622750
623105
623329
623709
623908
624237
624504
624778
625020
625362
625590
625942
626117
626475
626692
627068
627354
627629
627859
628160
628383
628680
628888
629173
629388
629777
629988
630289
630472
630764
630959
631272
631561
631805
632070
632308
632557
632817
633054
633317
633587
633873
634143
634372
634735
634930
635280
635587
635908
636213
636480
636719
636998
637203
637553
637760
638126
638362
638680
638954
639204
639436
639677
639923
640218
640477
640812
641005
641291
641482
641837
642088
642422
642692
642953
643198
643456
643737
643988
644467
644770
644826
645027
645277
645521
645744
645988
646214
646512
646802
647075
647300
647547
647736
648091
648358
648631
648905
649239
