152
410
680
898
1183
1415
1615
1960
2231
2490
2716
2949
3191
3464
3793
4104
4347
4584
4842
4983
5214
5471
5681
5912
6097
6385
6631
6831
7063
7317
7608
7814
8065
8297
8509
8660
8915
9110
9343
9636
10001
10261
10515
10765
11038
11294
11469
11794
12002
12246
12449
12684
12922
13216
13544
13794
14015
14343
14609
14861
15008
15235
15463
15685
15888
16145
16402
16564
16807
17036
17265
17419
17769
17952
18255
18423
18674
18918
19070
19293
19586
19819
20044
20265
20578
20900
21160
21401
21554
21738
21957
22289
22591
22749
22908
23147
23497
23651
23865
24185
24390
24634
24866
25112
25353
25617
25851
26131
26355
26604
26797
27036
27250
27439
27593
27872
28122
28371
28611
28909
29147
29438
29706
29933
30166
30307
30571
30775
31016
31298
31714
32024
32251
32423
32623
32855
33171
33356
33642
33888
34197
34346
34619
34866
35012
35216
35370
35616
35916
36249
36484
36679
37028
37194
37333
37579
37819
38068
38312
38577
38859
39156
39444
39777
40074
40299
40601
40806
41034
41253
41516
41690
41919
42162
42410
42560
42694
43016
43236
43468
43610
43928
44326
44643
44914
45195
45401
45589
45765
45981
46192
46454
46745
46996
47277
47495
47743
47946
48190
48410
48659
48912
49131
49369
49556
49698
50075
50326
50634
50923
51243
51495
51680
51907
52136
52400
52661
52905
53231
53446
53614
53840
54079
54403
54652
54879
55106
55255
55513
55674
56039
56240
56441
56684
56947
57157
57316
57725
58027
58255
58447
58570
58803
59076
59325
59586
59842
60073
60332
60581
60889
61138
61388
61621
61851
62067
62309
62458
62696
62916
63159
63340
63610
63822
64077
64301
64515
64683
64921
65114
65329
65627
65942
66190
66628
66802
67033
67246
67517
67766
68002
68292
68564
68941
69172
69472
69648
69883
70165
70389
70534
70661
71061
71274
71473
71810
72046
72197
72478
72723
72961
73247
73521
73717
74044
74473
74696
74970
75196
75422
75705
75936
76077
76211
76431
76733
76963
77321
77511
77728
77943
78092
78334
78487
78710
78947
79180
79424
79656
79873
80242
80549
80835
81110
81384
81672
81922
82159
82411
82729
83029
83302
83610
83841
84148
84446
84716
84920
85113
85318
85572
85835
85997
86213
86384
86607
86859
87104
87352
87537
87760
87985
88199
88354
88582
88720
89002
89265
89491
89766
90044
90330
90604
90835
91040
91277
91513
91747
92015
92387
92585
92819
93043
93235
93369
93599
93953
94143
94386
94639
94868
95108
95240
95593
95829
96158
96462
96738
96897
97115
97345
97561
97798
98207
98512
98718
99006
99334
99606
99891
100137
100408
100728
101060
101318
101514
101747
102041
102301
102519
102658
102901
103183
103431
103654
103873
104106
104330
104591
104950
105264
105479
105819
106043
106174
106426
106629
106941
107293
107638
107967
108165
108438
108679
108931
109177
109456
109606
109826
110133
110317
110553
110775
111094
111373
111627
111887
112115
112437
112672
113102
113362
113516
113767
114070
114383
114681
114893
115115
115390
115572
115839
116053
116288
116526
116698
116884
117143
117300
117471
117894
118136
118295
118538
118723
118967
119268
119520
119867
120420
120665
120913
121136
121428
121688
121921
122197
122421
122629
122840
123237
123544
123789
124032
124252
124498
124731
124878
125140
125411
125770
126006
126201
126465
126758
126959
127236
127453
127666
127954
128176
128401
128543
128787
129053
129247
129517
129751
130085
130399
130571
130824
130982
131211
131524
131786
131998
132232
132551
132808
133153
133421
133784
134053
134357
134599
134835
135083
135348
135601
135863
136084
137427
138163
138694
139287
139683
140248
140737
141434
141955
142428
142882
143137
143367
143816
144317
144740
145128
145568
146011
146440
146856
147267
147685
148126
148590
149020
149462
149916
150406
150890
151341
151778
152222
152697
153140
153566
153934
154245
154947
155156
155629
156279
156742
157175
157443
157870
158053
158558
159276
159946
160603
161285
161710
161870
162365
162804
163287
163783
164229
164696
165151
165519
165871
166309
166969
167419
167875
168317
168480
168983
169423
169802
170138
170573
171031
171492
171885
172050
172210
172456
172608
173000
173181
173360
173537
173692
173873
174130
174290
174553
174734
174968
175161
175349
175539
175759
176060
176250
176517
176788
177050
177206
177420
177605
177860
178135
178297
178496
178796
179017
179166
179428
179609
179863
180057
180275
180447
180612
180756
180956
181171
181432
181698
181926
182156
182587
182927
183237
183680
183885
184023
184274
184427
184595
184749
185323
186035
186371
187099
187316
187980
188177
188570
189058
189401
189591
189997
190663
191363
192060
192709
193395
194086
194735
195415
196131
196796
197202
197557
197809
198349
199028
199452
199773
200323
200751
201071
201577
202001
202381
202845
203257
203619
204079
204533
204895
205363
205768
206145
206634
207082
207439
207888
208310
208485
209035
209459
209804
210138
210577
210939
211218
211760
212192
212647
212998
213269
213797
214223
214656
215002
215286
215815
216235
216663
217021
217304
217862
218316
218743
219085
219653
220091
220411
220918
221332
221720
222181
222600
222937
223446
223907
224361
224797
225247
225696
226163
226613
227022
227440
227889
228323
228668
229161
229340
229810
230256
230702
231056
231538
231980
232317
232852
233278
233627
234093
234541
234922
235385
235799
236159
236393
236938
237383
237793
238145
238653
239109
239461
239944
240344
240725
241184
241631
241972
242442
242867
243255
243723
244153
244493
244982
245428
245810
246250
246661
247015
247488
247930
248287
248711
249123
249480
249943
250382
250709
251208
251639
251999
252509
252920
253255
253751
254168
254558
255011
255437
255772
256327
256759
257093
257577
258009
258366
258832
259253
259576
260026
260472
260820
261281
261703
262027
262527
262973
263307
263798
264205
264555
265064
265488
265818
266262
266435
266915
267352
267708
268135
268292
268792
269230
269662
270009
270488
270917
271253
271751
271923
272382
272787
273212
273575
274042
274216
274682
275099
275558
275899
276435
276864
277539
277987
278431
278741
279240
279684
279857
280375
280805
281228
281510
281920
282384
282703
282873
283238
283674
283870
284373
284813
285244
285563
286091
286551
286992
287298
287828
288250
288683
289068
289533
289945
290377
290759
291008
291523
291945
292369
292725
293233
293653
293992
294463
294898
295247
295724
296148
296465
296953
297402
297746
298231
298649
298986
299520
299964
300302
300775
301199
301569
302035
302439
302792
303225
303664
304031
304478
304881
305237
305735
306161
306526
306986
307400
307748
308252
308670
309010
309448
309885
310236
310709
311123
311459
311908
312353
312712
313183
313605
313936
314412
314843
315196
315624
316041
316374
316869
317295
317619
318110
318539
318882
319413
319814
320131
320618
321054
321397
321871
322280
322610
323102
323546
323879
324351
324774
325118
325602
326041
326341
326804
327229
327593
328039
328464
328741
329261
329711
330147
330453
330960
331393
331834
332165
332687
333092
333490
333842
334350
334761
335149
335496
335980
336423
336841
337167
337659
338114
338570
338870
339042
339401
339830
340271
340598
341140
341543
341948
342298
342799
343219
343639
343969
344459
344902
345341
345654
346148
346584
347013
347364
347842
348259
348673
349047
349555
349986
350385
350750
351236
351676
352034
352457
352638
353122
353566
353922
354403
354826
355146
355655
356067
356447
356833
357265
357628
358097
358281
358737
359130
359507
359953
360392
360716
361168
361599
361977
362152
362649
363040
363398
363803
364211
364614
364985
365378
365754
366171
366555
366995
367387
367767
368215
368643
369046
369465
369871
370276
370718
371148
371529
371937
372349
372763
373178
373612
373966
374170
374656
375105
375533
375891
376325
376760
377103
377582
378015
378350
378788
379251
379604
380074
380484
380841
381273
381707
382102
382485
382898
383260
383739
384161
384534
384952
385382
385751
386242
386651
387008
387221
387721
388171
388594
388960
389402
389848
390222
390673
391059
391439
391838
392009
392155
392536
392953
393303
393756
394204
394577
395063
395480
395823
396247
396650
396834
397294
397644
397816
398269
398462
398888
399334
399693
400057
400400
400589
400750
401098
401495
401898
402349
403073
403576
404027
404471
404937
405432
405615
406170
406375
406903
407608
407936
408280
408670
409093
409547
409995
410417
410825
411242
411692
412122
412506
412693
412845
413178
413611
414005
414222
414731
415139
415556
415963
416437
416845
417233
417429
417585
417928
418360
418762
419202
419364
419863
420301
420690
421133
421541
421914
422369
422816
423179
423622
424025
424427
424649
424801
425177
425593
426000
426418
426825
427312
427479
427610
427977
428391
428772
429242
429679
430318
430747
431136
431606
432028
432372
432852
433288
433731
434375
434784
435160
435642
436069
436478
436839
437299
437485
437626
438027
438432
438858
439206
439450
439618
439996
440424
440846
441252
441652
442117
442299
442765
443182
443553
444028
444458
444850
445044
445519
445961
446403
446786
447001
447502
447916
448357
448740
449215
449618
449992
450478
450917
451082
451225
451599
451994
452160
452700
453145
453477
453975
454407
454836
455017
455549
455960
456281
456794
457240
457658
458017
458464
458635
459133
459579
459989
460345
460774
461226
461566
462062
462715
463123
463572
463953
464398
464563
465059
465490
465925
466301
466736
467146
467486
467978
468398
468749
469196
469593
469985
470421
470846
471165
471654
472085
472481
472943
473359
473714
474187
474620
475010
475432
475861
476234
476707
477130
477505
477915
478347
478740
479160
479587
479930
480394
480819
481229
481682
482096
482465
482969
483395
483780
484191
484613
484983
485483
485880
486248
486681
487110
487503
487958
488358
488719
489195
489649
490007
490454
490871
491236
491699
492117
492506
492915
493367
493849
494278
494700
495127
495549
496009
496445
496853
497257
497702
498135
498577
498993
499403
499820
500276
500717
501143
501566
501999
502442
502881
503297
503702
504137
504587
505014
505428
505835
506249
506688
507138
507549
507947
508369
508783
509223
509645
510056
510458
510907
511349
511760
512164
512575
512992
513426
513836
514231
514622
515054
515493
515907
516318
516733
517158
517605
518041
518440
518847
519260
519708
520098
520528
520909
521326
521760
522235
522419
522552
522921
523348
523515
524036
524458
524626
524774
525122
525527
525968
526402
526580
527096
527299
527800
528544
528744
529252
529444
529949
530690
530875
531407
531582
532098
532289
532848
533550
533731
534236
534436
534974
535173
535305
535683
535848
536368
537130
537318
537835
538017
538532
538716
539276
539997
540180
540685
540872
541438
541625
541859
542224
542389
542915
543134
543686
544397
544583
545127
545318
545882
546084
546595
547289
547490
547640
548026
548203
548328
548735
549047
549471
549681
550257
550969
551146
551693
552438
552623
553139
553551
553989
554366
554607
555133
555837
556035
556570
557272
557459
557592
557934
558263
558636
558826
558961
559315
559497
559619
559981
560168
560702
561429
561616
561729
562123
562302
562458
562915
563372
563541
564075
564266
564798
565545
565734
566238
566980
567171
567702
568391
569088
569292
569823
570489
570683
570811
571010
571578
571918
572342
572534
573044
573797
573994
574480
574797
574983
575130
575343
575521
575695
575851
576041
576331
576536
576688
576903
577074
577273
577565
577862
578076
578248
578449
578691
578959
579138
579395
579629
579953
580152
580362
580541
580705
580939
581155
581355
581515
581653
581808
581962
582097
582243
582524
582706
583116
583356
583549
583729
583909
584218
584452
584713
584964
585205
585508
585689
585863
586289
586570
586832
587068
587354
587514
587643
587820
588030
588289
588528
588792
589003
589277
589472
589808
589995
590248
590516
590767
590989
591255
591420
591616
591913
592137
592361
592647
592914
593233
593393
593676
593941
594156
594416
594580
594841
595085
595345
595559
595848
596028
596343
596557
596846
597061
597319
597575
597817
598012
598234
598450
598751
599016
599277
599437
599660
599819
600110
600364
600556
600865
601121
601416
601703
601917
602176
602365
602584
602761
602909
603133
603396
603663
603906
604090
604354
604526
604758
604990
605228
605472
605709
605968
606190
606422
606628
606863
607192
607412
607558
607788
608064
608305
608546
608859
609083
609334
609556
609824
610131
610399
610560
610806
611027
611311
611591
611826
612128
612395
612712
612975
613180
613384
613572
613787
614105
614269
614510
614728
614937
615117
615248
615512
615793
615974
616218
616463
616719
616959
617130
617438
617656
617945
618141
618299
618569
618810
619010
619215
619438
619674
619854
620046
620221
620459
620734
620968
621236
621394
621621
621873
622138
622403
622627
622843
623036
623288
623456
623674
623906
624141
624344
624575
624822
625123
625467
625712
625921
626175
626419
626580
626822
627017
627193
627453
627702
627875
628305
628524
628694
628899
629123
629318
629617
629791
630024
630286
630453
630727
630948
631215
631385
631550
631808
632070
632355
632611
632770
633001
633279
633496
633730
634009
634379
634662
634916
635202
635487
635659
635832
636095
636343
636646
636901
637275
637517
637688
637870
638097
638289
638526
638704
638923
639133
639359
639623
639839
639990
640253
640516
640785
641011
641199
641535
641816
642031
642300
642490
642729
642963
643230
644589
645170
645797
646044
646512
646671
647242
647958
648413
649097
649793
