342
735
1147
1569
1973
2359
2750
3160
3582
4000
4393
4793
5193
5606
6008
6399
6792
7183
7600
8033
8453
8849
9252
9669
10101
10352
10893
11282
11674
12080
12489
12879
13272
13668
14088
14517
14942
15345
15749
16169
16601
17017
17402
17785
18186
18605
18998
19394
19782
20183
20603
21028
21453
21852
22249
22673
23101
23522
23923
24324
24749
25173
25584
25977
26367
26771
27193
27610
28023
28417
28816
29238
29669
30084
30482
30880
31319
31745
32142
32526
32910
33300
33702
34099
34496
34882
35271
35684
36104
36517
36902
37285
37694
38108
38516
38917
39309
39722
40147
40565
40970
41362
41751
42160
42574
42987
43380
43772
44182
44610
45024
45419
45813
46222
46653
47073
47483
47884
48288
48701
49126
49534
49929
50321
50727
51158
51570
51962
52354
52764
53201
53628
54035
54448
54867
55295
55717
56117
56510
56901
57310
57734
58138
58527
58925
59346
59779
60199
60589
60988
61397
61818
62235
62637
63038
63444
63864
64291
64695
65080
65464
65871
66300
66707
67096
67492
67917
68347
68764
69163
69561
69972
70393
70812
71222
71609
72007
72424
72855
73269
73663
74063
74501
74936
75358
75761
76171
76597
77018
77438
77828
78211
78610
79035
79456
79857
80241
80637
81057
81472
81876
82115
82648
83057
83472
83881
84278
84668
85074
85499
85923
86331
86723
87115
87546
87969
88217
88743
89124
89530
89928
90325
90721
91108
91509
91933
92358
92770
93163
93549
93962
94391
94801
95198
95587
95834
96394
96794
97173
97551
97939
98346
98754
99160
99560
99951
100359
100789
101210
101604
102003
102414
102850
103274
103673
104076
104484
104903
105325
105729
106126
106521
106941
107374
107792
108187
108579
108991
109412
109818
110199
110582
110995
111416
111823
112228
112629
113041
113469
113905
114326
114727
115129
115553
115985
116400
116795
117197
117627
118056
118480
118890
119299
119723
120156
120424
120999
121399
121812
122244
122673
123079
123473
123888
124319
124739
125148
125540
125942
126359
126777
127196
127594
127985
128398
128827
129250
129645
130028
130432
130855
131265
131666
132054
132461
132895
133321
133744
134146
134546
134966
135395
135812
136205
136585
136994
137404
137806
138189
138573
138977
139412
139844
140268
140683
141090
141511
141936
142354
142750
143141
143549
143980
144394
144790
145060
145482
145929
146374
146798
147228
147656
148089
148520
148941
149328
149696
150075
150473
150878
151275
151671
152082
152520
152944
153344
153742
154151
154574
154999
155408
155641
156192
156604
157012
157416
157798
158179
158580
159004
159422
159819
160215
160628
161053
161470
161877
162271
162670
163085
163507
163919
164311
164700
165111
165542
165968
166370
166768
167190
167624
168037
168433
168821
169216
169626
170030
170299
170807
171177
171561
171949
172338
172714
173082
173462
173871
174274
174676
175056
175442
175839
176249
176662
177068
177456
177852
178267
178697
179112
179506
179902
180323
180745
181146
181535
181924
182333
182744
183156
183562
183954
184348
184771
185194
185613
186006
186401
186829
187257
187667
188061
188450
188857
189264
189668
190068
190452
190841
191255
191676
192087
192481
192867
193272
193693
194098
194481
194866
195264
195685
196099
196499
196897
197296
197704
198121
198526
198735
198918
199304
199691
200098
200489
200850
201207
201570
201951
202336
202705
203056
203419
203795
204201
204617
205020
205246
205413
205806
206208
206631
207051
207441
207828
208220
208620
209004
209376
209735
210103
210477
210851
211218
211562
211902
212229
212575
212923
213273
213611
213935
214253
214585
214930
215287
215631
215964
216292
216625
216971
217307
217641
217966
218289
218540
218924
219261
219600
219937
220260
220569
220885
221216
221557
221901
222227
222469
222863
223204
223543
223886
224225
224481
224876
225214
225551
225900
226249
226518
226922
227247
227577
227918
228269
228550
228947
229263
229587
229936
230280
230614
230943
231256
231570
231895
232227
232488
232900
233234
233548
233858
234184
234519
234859
235205
235527
235848
236174
236524
236872
237211
237542
237863
238187
238438
238866
239205
239536
239860
240171
240483
240808
241138
241462
241782
242087
242395
242716
243050
243392
243719
244032
244269
244649
244983
245323
245654
245973
246290
246608
246931
247263
247612
247949
248288
248622
248944
249290
249648
250033
250371
250712
251053
251425
251800
252178
252544
252907
253270
253654
254037
254426
254795
255170
255533
255920
256322
256715
257087
257458
257839
258242
258648
259032
259411
259786
260186
260582
260977
261360
261740
262123
262515
262927
263312
263680
264047
264430
264832
265011
265150
265355
265825
266191
266568
266948
267137
267318
267706
267877
268309
268682
268858
269323
269700
269869
270298
270658
271031
271302
271795
272158
272522
272909
273092
273565
273961
274131
274585
274971
275138
275451
276010
276397
276773
276936
277401
277817
278225
278397
278847
279240
279646
280052
280452
280626
281087
281474
281880
282062
282540
282938
283107
283556
283951
284350
284752
285124
285490
285865
286275
286679
287070
287446
287831
288232
288637
288814
289292
289683
290067
290247
290735
291136
291531
291900
292275
292677
293080
293470
293846
294214
294605
295015
295409
295798
296176
296554
296945
297339
297740
298126
298489
298870
299272
299680
300059
300430
300805
301194
301610
302003
302389
302563
303011
303410
303806
304202
304582
304951
305329
305733
306146
306541
306917
307288
307681
308087
308477
308847
309225
309598
310005
310412
310809
311195
311574
311962
312374
312786
313176
313557
313951
314360
314775
315172
315556
315943
316344
316750
317151
317543
317914
318300
318697
319110
319504
319880
320263
320657
321071
321468
321850
322235
322624
323025
323435
323839
324220
324611
325006
325427
325835
326227
326606
327000
327412
327832
328227
328610
329009
329419
329832
330239
330622
331015
331409
331817
332225
332610
332988
333362
333756
334165
334554
334935
335310
335715
336123
336523
336908
337281
337671
338069
338472
338870
339257
339632
340025
340436
340845
341238
341614
342001
342431
342847
343238
343623
344013
344425
344837
345242
345641
346026
346419
346825
347238
347635
348018
348404
348819
349223
349619
349995
350364
350747
351140
351523
351903
352269
352639
353016
353417
353811
354202
354576
354946
355357
355755
356144
356516
356883
357252
357644
358018
358383
358753
359108
359484
359890
360276
360671
361049
361432
361856
362272
362661
363057
363446
363866
364285
364700
365100
365496
365904
366319
366739
367151
367533
367928
368345
368773
369181
369565
369959
370377
370794
371210
371614
372008
372416
372833
373255
373662
374057
374463
374884
375312
375731
376120
376523
376946
377387
377806
378207
378626
379052
379485
379902
380311
380717
381133
381570
381996
382404
382803
383213
383652
384089
384494
384902
385330
385772
386206
386619
387034
387452
387890
388330
388749
389142
389549
389974
390405
390818
391207
391616
392048
392482
392906
393309
393724
394142
394569
395006
395414
395817
396241
396663
397101
397511
397909
398345
398790
399210
399621
400019
400445
400879
401308
401729
402130
402542
402970
403407
403827
404228
404407
404930
405142
405288
405655
405840
406326
406524
407012
407214
407720
407931
408069
408413
408595
409085
409296
409439
409812
410004
410150
410513
410689
411184
411394
411548
411693
411873
412083
412315
412510
412693
412867
413030
413247
413462
413646
413804
414067
414313
414513
414697
414868
415077
415243
415398
415622
415826
416055
416254
416446
416685
417146
417570
417756
417915
418344
418532
418686
419071
419247
419391
419778
419966
420135
420530
420712
421229
421416
421918
422110
422240
422636
422819
422978
423348
423525
423675
423939
424135
424327
424495
424826
425068
425255
425478
425792
425998
426236
426417
426599
426811
426984
427153
427330
427500
427670
427868
428063
428382
428577
428800
429010
429187
429365
429536
429712
429884
430069
430241
430413
430585
430756
430945
431126
431311
431483
431667
431904
432080
432251
432488
432711
432910
433161
433357
433538
433713
433883
434041
434204
434371
434533
434693
434914
435134
435307
435483
435654
435830
436018
436185
436348
436507
436672
436819
436985
437169
437333
437507
437681
437858
438029
438211
438380
438611
438790
439015
439236
439406
439584
439753
439925
440100
440278
440446
440654
440809
440974
441131
441304
441472
441727
441893
442078
442289
442468
442698
442905
443112
443317
443506
443759
443969
444202
444410
444633
444864
445017
445260
445414
445572
445725
445887
446056
446224
446387
446566
446727
446959
447122
447280
447514
447694
447911
448164
448341
448515
448810
448979
449136
449287
449441
449596
449751
449907
450065
450223
450387
450551
450714
450895
451065
451218
451375
451527
451689
451859
452069
452245
452456
452630
452800
452969
453127
453286
453445
453601
453752
453975
454303
454522
454696
454861
455019
455186
455348
455512
455663
455817
455981
456154
456297
456448
456622
456793
456964
457275
457450
457752
457907
458064
458208
458355
458500
458665
458966
459134
459302
459463
459645
459810
460041
460252
460396
460558
460854
461029
461191
461358
461514
461672
461829
461987
462142
462294
462443
462599
462746
462924
463083
463249
463401
463561
463714
463877
464039
464195
464355
464508
464648
464855
465234
465809
466308
466470
467054
467226
467410
467861
468034
468596
468765
468926
469244
469475
469759
469978
470152
470341
470595
471058
471311
471503
471714
472011
472188
472345
472652
472967
473142
473431
473704
473903
474066
474397
474660
474828
474989
475128
475401
475629
475811
476019
476234
476422
476634
476793
476961
477229
477430
477563
477726
477929
478176
478441
478604
478818
478974
479214
479368
479704
479917
480178
480438
480731
480935
481169
481346
481572
481759
482006
482244
482570
482770
483169
483376
483507
483718
483941
484190
484463
484733
485022
485280
485440
485697
485920
486185
486386
486632
486922
487205
487489
487670
487954
488291
488490
488688
489013
489224
489465
489671
489937
490169
490371
490630
490805
490968
491271
491501
491697
491933
492098
492298
492578
492841
493072
493279
493520
493791
494004
494208
494373
494603
494871
495292
495562
495862
496137
496397
496628
496919
497195
497404
497729
497931
498166
498331
498581
498766
498981
499193
499458
499678
500009
500445
500759
500978
501244
501540
501713
502003
502204
502423
502676
502864
503114
503269
503429
503656
503891
504064
504290
504669
504867
505141
505324
505506
505659
505864
506027
506240
506527
506825
507055
507284
507521
507812
507996
508237
508448
508717
508958
509139
509367
509682
509908
510154
510310
510555
510801
510973
511183
511386
511608
511829
511992
512203
512414
512573
512838
513007
513253
513515
513821
514114
514358
514633
514855
515080
515402
515681
515892
516116
516402
516636
516882
517107
517342
517577
517872
518194
518428
518586
518840
519037
519269
519542
519839
520067
520294
520482
520715
520961
521262
521527
521755
522000
522260
522492
522668
522926
523263
523457
523809
524011
524244
524468
524619
524851
525048
525274
525447
525659
525897
526127
526288
526478
526642
526959
527212
527414
527580
527736
527968
528161
528299
528538
528771
528973
529244
529391
529565
529818
530128
530396
530686
530903
531216
531386
531604
531869
532262
532582
532796
533071
533279
533582
533811
533955
534114
534351
534536
534816
534993
535241
535565
535896
536083
536238
536415
536727
536975
537195
537394
537666
537925
538087
538294
538479
538731
538975
539273
539579
539835
540046
540187
540497
540781
541128
541362
541668
541945
542237
542421
542788
543029
543276
543461
543666
543890
544102
544330
544598
544841
544992
545294
545551
545778
546039
546280
546524
546767
547064
547343
547522
547791
548085
548259
548550
548753
549000
549168
549398
549673
549935
550147
550320
550498
550702
550859
551026
551189
551350
551512
551681
551852
552028
552191
552359
552518
552680
552842
553005
553170
553333
553498
553670
553838
554014
554192
554367
554553
554796
555011
555179
555336
555496
555658
555813
555975
556145
556317
556493
556666
556831
556996
557156
557310
557467
557623
557783
557938
558102
558271
558441
558614
558778
558943
559108
559266
559422
559578
559735
559894
560053
560219
560388
560552
560720
560884
561049
561213
561372
561534
561689
561845
562003
562157
562319
562481
562630
562795
562957
563125
563293
563450
563607
563757
563905
564060
564213
564371
564523
564683
564849
565018
565186
565352
565509
565668
565823
565976
566127
566282
566437
566595
566753
566914
567147
567374
567632
567855
568065
568345
568576
568763
569057
569304
569498
569885
570130
570456
570712
570902
571234
571510
571788
572042
572248
572399
572621
572830
573203
573417
573659
573913
574114
574354
574580
574837
575091
575288
575460
575696
575975
576232
576380
576697
576937
577109
577383
577632
577884
578226
578474
578774
578965
579152
579430
579742
580073
580331
580581
580720
580990
581176
581391
581689
581916
582191
582367
582519
582658
582828
583051
583260
583479
583685
584044
584309
584609
584870
585072
585301
585458
585611
585808
586032
586249
586514
586695
586865
587127
587287
587583
587791
588037
588382
588710
589033
589306
589535
589745
589963
590306
590564
590782
591043
591211
591529
591747
591978
592226
592613
592883
593136
593414
593660
593853
594091
594260
594466
594707
595047
595272
595471
595802
596012
596271
596496
596707
596842
597137
597405
597656
597949
598222
598424
598675
598844
599187
599382
599619
599789
600059
600349
600604
600822
601084
601458
601718
601950
602206
602362
602657
602886
603145
603452
603651
603994
604202
604398
604659
604884
605011
605251
605423
605680
605947
606215
606555
606767
607037
607259
607457
607649
607846
608176
608350
608546
608823
609062
609258
609519
609742
609895
610149
610390
610685
611076
611288
611467
611716
611973
612151
612374
612681
612984
613172
613393
613569
613793
614029
614202
614501
614819
615106
615398
615679
615927
616248
616503
616750
616976
617161
617445
617732
618035
618212
618514
618679
618998
619337
619533
619833
620078
620306
620612
620823
621023
621340
621613
621905
622138
622438
622684
622854
623076
623330
623588
623846
624026
624369
624542
624749
624891
625030
625194
625439
625627
625909
626166
626544
626746
626950
627146
627361
627637
627857
628089
628297
628502
628776
629016
629341
629556
629840
630187
630420
630681
630866
631127
631308
631464
631687
631882
632052
632310
632475
632607
632813
633109
633350
633606
633935
634148
634415
634650
634927
635200
635426
635748
636123
636311
636602
636826
636957
637233
637465
637652
637806
638072
638356
638635
638917
639074
639291
639637
639866
640130
640456
640728
640945
641205
641349
641615
641844
642063
642268
642573
642887
643099
643380
643627
643829
644011
644303
644516
644713
645017
645284
645597
645889
646301
646456
646581
646849
647029
647300
647627
647853
648117
648338
648550
648715
649084
649335
649608
649869
