98
429
659
862
996
1267
1481
1718
1876
2092
2264
2357
2535
2657
2788
2927
3127
3333
3460
3712
3992
4239
4534
4720
4856
5080
5244
5430
5647
5791
6029
6198
6433
6709
6941
7279
7587
7751
7877
8152
8309
8539
8874
9112
9295
9429
9670
9949
10165
10493
10828
11077
11341
11649
11854
12016
12275
12523
12751
12989
13196
13538
13775
14011
14287
14586
14785
14924
15241
15433
15627
15927
16058
16303
16599
16739
16859
16961
17273
17417
17652
17913
18225
18434
18642
18910
19115
19259
19389
19742
19894
20102
20298
20456
20581
20703
20898
21034
21158
21273
21404
21705
21865
22140
22389
22511
22654
22768
22873
23268
23405
23656
23765
24073
24225
24363
24482
24724
24888
24994
25299
25673
25999
26299
26587
26820
26970
27217
27517
27826
28217
28451
28635
28861
29023
29340
29518
29782
30061
30281
30594
30739
31008
31247
31579
31849
32007
32241
32516
32728
32987
33126
33402
33763
33913
34288
34447
34579
34717
34988
35127
35259
35533
35675
35787
35928
36077
36294
36546
36919
37295
37538
37909
37994
38113
38392
38627
38869
39006
39112
39265
39471
39783
39920
40029
40261
40390
40708
40852
41239
41396
41658
41805
42125
42434
42657
42916
43051
43400
43560
43683
43832
43977
44220
44455
44624
44751
44877
45154
45269
45562
45727
46118
46337
46458
46736
46860
47059
47343
47589
48023
48192
48399
48732
49063
49190
49416
49561
49687
49932
50113
50444
50738
51057
51195
51283
51412
51647
51902
52175
52483
52928
53166
53350
53741
54126
54330
54468
54746
54924
55140
55423
55671
55805
55979
56232
56357
56843
57008
57269
57525
57796
58087
58344
58578
58818
59052
59365
59631
59897
60102
60416
60610
60811
60961
61210
61495
61690
61904
62117
62279
62514
62786
63071
63255
63543
63745
63890
63997
64128
64352
64608
64853
65065
65342
65609
65877
66042
66208
66460
66691
66887
67059
67210
67312
67490
67778
67953
68100
68382
68622
68874
69150
69402
69633
69887
70259
70525
70741
70995
71392
71618
71925
72092
72358
72518
72759
72959
73172
73393
73650
73826
74049
74211
74422
74774
74924
75153
75479
75751
75949
76109
76255
76507
76702
76990
77153
77256
77565
77739
78111
78275
78554
78817
79285
79454
79798
80070
80306
80567
80999
81140
81385
81641
81868
82130
82395
82669
82971
83168
83359
83685
83886
84049
84294
84565
84815
85107
85323
85449
85589
85835
86051
86291
86489
86811
87090
87321
87611
87866
88127
88378
88533
88786
89007
89238
89462
89662
89787
89928
90074
90192
90513
90781
91081
91386
91625
91884
92117
92274
92634
92792
93192
93431
93665
93955
94248
94463
94668
94989
95283
95638
95815
95929
96255
96422
96745
97013
97130
97395
97637
97928
98149
98412
98698
98853
98978
99113
99241
99664
99820
100168
100309
100692
101117
101285
101521
101776
102046
102306
102626
102850
103108
103512
103656
103770
104018
104204
104518
104701
105104
105269
105584
105822
106010
106260
106400
106647
106866
107103
107384
107650
107843
107962
108206
108474
108746
109107
109376
109616
109771
109913
110060
110137
110313
110445
110808
110957
111223
111367
111518
111743
111853
112137
112411
112748
112936
113256
113445
113685
113804
114098
114352
114604
114761
115033
115298
115473
115740
116009
116282
116586
116724
117006
117278
117524
117744
117860
118010
118237
118375
118540
118765
119039
119298
119642
119917
120183
120360
120609
120856
121023
121271
121550
121718
121840
122074
122390
122649
123038
123204
123462
123622
123755
123894
124022
124263
124444
124681
125013
125213
125352
125734
125904
126166
126394
126602
126910
127044
127237
127414
127648
127968
128192
128483
128723
128988
129095
129211
129466
129582
129854
130251
130499
130855
131104
131343
131757
132031
132363
132645
132966
133203
133556
133847
134072
134403
134624
134817
135056
135293
135614
135788
135876
136299
136472
136677
137043
137230
137354
137465
137697
137854
138002
138246
138386
138495
138771
139044
139437
139636
139807
140037
140289
140570
140885
141167
141484
141744
142024
142308
142532
142801
143055
143232
143451
143591
143847
144124
144313
144542
144693
144930
145076
145321
145653
145767
145920
146046
146164
146287
146441
146756
147024
147267
147496
147751
148127
148446
148578
148772
148912
149176
149346
149574
149855
150174
150382
150562
150686
150959
151208
151462
151802
152138
152324
152529
152772
153037
153325
153481
153590
153858
154122
154253
154379
154614
154863
155009
155261
155487
155876
156094
156441
156707
156946
157203
157361
157718
157889
158104
158356
158607
158864
159140
159452
159619
159861
160200
160406
160684
160814
160949
161191
161347
161599
161740
161885
162031
162313
162532
162928
163088
163333
163465
163699
164026
164221
164469
164709
164943
165134
165273
165561
165706
165931
166227
166533
166898
167057
167424
167742
168012
168325
168630
169002
169151
169291
169424
169549
169807
169949
170226
170401
170636
170772
170886
171175
171332
171639
171810
171962
172161
172462
172668
172793
172951
173076
173232
173567
173720
173821
174092
174341
174608
174875
175023
175221
175522
175724
175981
176224
176448
176776
177028
177256
177411
177676
177882
178031
178289
178410
178545
178798
178981
179235
179380
179525
179667
179802
180048
180209
180365
180574
180854
181036
181149
181299
181528
181763
182112
182251
182604
182879
183130
183249
183397
183535
183840
183995
184111
184242
184388
184699
184851
185059
185332
185654
185821
186128
186542
186683
186961
187156
187423
187596
187850
188153
188435
188895
189288
189473
189729
189879
189993
190274
190592
190824
191082
191302
191442
191591
191977
192093
192308
192673
192911
193075
193303
193600
193886
194117
194255
194407
194532
194666
194871
195150
195291
195551
195798
195987
196196
196561
196682
196990
197117
197360
197622
197875
198007
198157
198277
198524
198816
199026
199144
200025
200257
200517
200779
200975
201184
201454
201657
201835
202007
202313
202508
202722
202873
203005
203211
203404
203623
203842
204031
204199
204575
204763
205038
205268
205518
205749
206006
206157
206398
206765
206934
207177
207345
207487
207791
207950
208196
208547
208803
209035
209279
209507
209678
209938
210165
210846
211213
211336
211712
211865
212196
212390
212612
212755
212868
213193
213334
213610
213748
213884
214151
214443
214713
214952
215265
215392
215642
216019
216152
216428
216656
216790
217004
217117
217467
217723
217956
218194
218419
218582
218821
218974
219198
219454
219576
219860
220110
220371
220611
220869
221021
221207
221430
221585
221805
222070
222244
222507
222782
223040
223348
223497
223693
223887
224085
224336
224549
224747
224979
225211
225636
225789
226132
226376
226519
226611
226790
226900
227187
227380
227530
227816
227953
228201
228313
228553
228822
229088
229240
229447
229567
229816
230042
230328
230485
230751
230890
231101
231240
231471
231676
231995
232204
232473
232799
232941
233194
233428
233642
233794
234041
234180
234297
234432
234694
234838
235110
235302
235555
235803
236096
236214
236340
236704
236986
237257
237451
237660
237895
238185
238386
238517
238758
239047
239281
239459
239661
239932
240193
240314
240523
240756
240878
241165
241399
241687
241941
242263
242629
242893
243160
243412
243613
243744
243868
244121
244307
244619
244883
245104
245340
245593
245757
246053
246267
246424
246652
246803
247010
247224
247495
247629
247904
248130
248271
248422
248732
248991
249109
249358
249499
249734
249952
250187
250356
250515
250708
250845
250976
251170
251323
251463
251685
251791
251986
252237
252432
252580
252706
252949
253121
253294
253492
253749
253983
254113
254246
254513
254842
255012
255266
255533
255663
255766
255877
256089
256331
256627
256790
257034
257173
257439
257575
257865
258039
258104
258293
258637
259002
259281
259498
259706
259843
260036
260233
260397
260586
260847
260995
261213
261368
261500
261745
262059
262276
262458
262674
262822
263039
263249
263518
263743
263992
264127
264383
264578
264785
264984
265145
265263
265389
265575
265846
266095
266325
266547
266824
266969
267140
267277
267528
267650
267903
268117
268380
268521
268830
269104
269223
269446
269675
269881
270051
270279
270474
270689
270793
271102
271375
271505
271610
271857
271994
272204
272510
272791
272920
273038
273162
273260
273527
273703
273956
274077
274313
274565
274790
275016
275232
275365
275589
275755
275856
276152
276303
276485
276669
276886
277051
277245
277446
277671
277889
278038
278257
278498
278748
278870
278996
279286
279430
279733
279907
280132
280404
280637
280929
281115
281367
281506
281614
281732
281967
282198
282372
282503
282653
282820
283067
283235
283458
283612
283716
283862
284105
284330
284597
284866
284999
285128
285312
285492
285621
285747
285958
286098
286306
286559
286658
286787
287128
287482
287821
287945
288064
288303
288472
288739
288974
289053
289353
289508
289708
289998
290136
290378
290553
290722
291053
291177
291440
291746
291956
292136
292457
292636
292845
293002
293284
293399
293605
293939
294057
294198
294537
294670
294919
295132
295400
295545
295732
295987
296169
296310
296429
296550
296838
296999
297081
297226
297444
297655
297917
298173
298413
298570
298680
298791
299045
299289
299458
299615
299826
300119
300272
300497
300759
300967
301132
301358
301492
301626
301891
302146
302284
302428
302655
302794
303170
303314
303521
303854
304025
304224
304493
304699
304838
305026
305150
305380
305735
305983
306271
306606
306851
307027
307302
307431
307747
308089
308410
308577
308813
309135
309467
309837
309996
310245
310487
310746
311051
311296
311531
311818
312027
312232
312424
312618
312896
313037
313126
313275
313401
313611
313894
314117
314275
314423
314510
314634
314827
315079
315322
315474
315689
315910
316036
316141
316245
316481
316623
316843
317074
317213
317478
317728
317842
318004
318170
318412
318646
318704
318988
319210
319431
319659
319794
320057
320304
320416
320775
320917
321218
321422
321665
321891
322034
322166
322300
322447
322579
322899
323041
323234
323413
323579
323753
323901
323996
324271
324536
324700
324827
325041
325280
325476
325680
325963
326228
326374
326700
326971
327172
327408
327636
327792
327937
328158
328358
328669
328914
329171
329592
329695
329847
329977
330106
330460
330689
330964
331216
331406
331589
331772
331890
332110
332340
332626
332770
332875
333009
333155
333363
333665
333807
334189
334455
334726
334872
335144
335403
335564
335739
335991
336180
336297
336539
336703
336914
337171
337464
337685
337951
338299
338519
338720
338980
339347
339589
339898
340028
340154
340298
340392
340626
340780
341065
341408
341693
341989
342280
342495
342725
342877
343114
343311
343614
343889
344106
344246
344367
344507
344738
344901
345130
345490
345780
345966
346265
346540
346883
347096
347249
347365
347497
347637
347924
348088
348310
348423
348712
348911
349130
349360
349648
349878
350186
350412
350566
350650
350912
351059
351264
351505
351868
352168
352363
352700
353012
353312
353511
353785
354093
354377
354627
354882
355198
355469
355703
355823
356139
356281
356407
356682
356951
357325
357756
357873
358360
358592
358729
358862
359201
359361
359678
359929
360315
360557
360683
361026
361319
361668
361891
362120
362379
362546
362776
363014
363258
363433
363577
363730
363962
364158
364349
364499
364743
364923
365200
365402
365742
365900
366235
366468
366678
367035
367446
367575
367744
367989
368158
368334
368485
368835
368975
369214
369469
369706
369919
370183
370411
370760
370894
371145
371328
371570
371779
371938
372060
372297
372417
372792
372949
373111
373283
373445
373641
373804
373972
374108
374243
374617
374753
375141
375338
375537
375802
376042
376375
376624
376945
377215
377558
377824
378060
378438
378590
378736
378972
379200
379453
379568
379825
380079
380330
380474
380908
381056
381335
381584
381806
381959
382246
382550
382871
383277
383464
383593
383827
383952
384316
384478
384748
385055
385207
385330
385563
385945
386089
386334
386599
386876
387019
387151
387284
387442
387697
387798
388146
388296
388583
388913
389287
389677
389936
390160
390408
390789
390959
391333
391653
391997
392182
392374
392760
393000
393270
393411
393729
393902
394135
394374
394503
394700
394978
395183
395446
395786
396026
396269
396527
396821
396963
397065
397324
397641
397966
398306
398481
398782
399025
399315
399588
399874
400038
400333
400525
400714
400909
401028
401232
401534
401777
402058
402273
402658
402985
403183
403304
403451
403675
403803
403932
404074
404348
404599
404826
404970
405242
405388
405490
405766
405956
406101
406472
406626
406928
407195
407422
407649
407957
408264
408484
408674
408882
409011
409135
409247
409395
409771
409919
410069
410179
410455
410620
410953
411122
411329
411564
411857
412130
412514
412789
412930
413250
413387
413501
413599
413917
414066
414565
414732
414948
415074
415211
415316
415441
415800
415960
416140
416339
416466
416631
416897
417017
417378
417682
417856
418300
418459
418788
418949
419199
419396
419653
419872
420273
420479
420701
421012
421187
421308
421626
421881
422135
422393
422512
422743
422973
423287
423429
423717
424075
424343
424582
424739
424925
425226
425598
425794
426011
426146
426255
426408
426689
426867
427176
427444
427691
427906
428125
428270
428400
428553
428669
428840
429033
429310
429602
429846
430034
430351
430627
430770
431083
431301
431449
431569
431849
431990
432326
432626
432897
433019
433286
433515
433783
433967
434180
434347
434558
434800
435079
435276
435503
435773
435988
436254
436602
436752
436879
437105
437347
437471
437594
437761
437890
438028
438166
438432
438601
438799
439048
439234
439369
439705
439860
440086
440340
440649
440886
441103
441419
441722
441994
442188
442478
442815
443107
443413
443553
443694
444043
444197
444352
444524
444784
445199
445620
445914
446212
446477
446732
446995
447182
447327
447459
447863
448025
448367
448587
448941
449217
449365
449670
449985
450253
450519
450799
451085
451234
451356
451611
451776
452044
452373
452618
452754
453117
453286
453596
453834
454071
454479
454845
455041
455157
455386
455617
455829
455989
456275
456488
456736
456963
457116
457361
457456
457726
457948
458180
458360
458477
458560
458700
458846
459059
459221
459427
459696
459854
460077
460243
460427
460576
460836
461088
461387
461692
461869
462021
462154
462275
462433
462661
462901
463036
463160
463351
463795
463950
464163
464366
464676
464934
465184
465453
465615
465958
466127
466451
466762
467089
467429
467629
467929
468067
468395
468731
469005
469251
469530
469786
470047
470212
470503
470678
470791
470942
471288
471457
471797
471931
472167
472520
472798
473157
473432
473645
473782
474001
474381
474800
475046
475356
475592
475828
476211
476458
476575
476909
477267
477560
477720
477793
478199
478350
478642
479022
479372
479672
479952
480196
480452
480584
480898
481140
481443
481695
481906
482046
482178
482411
482598
482865
483122
483318
483503
483648
483864
484158
484366
484494
484625
484861
484956
485210
485377
485659
485905
486184
486322
486665
486956
487183
487416
487703
487963
488318
488464
488839
489013
489296
489473
489691
489865
490087
490296
490444
490732
490900
491131
491394
491665
491989
492244
492529
492747
493015
493254
493526
493678
493921
494322
494621
494851
495167
495384
495680
495912
496205
496473
496728
497065
497269
497450
497723
497964
498160
498408
498613
498865
499133
499367
499684
499854
500092
500299
500468
500719
501032
501332
501580
501825
502049
502248
502520
502831
503055
503262
503473
503775
504017
504318
504532
504709
504956
505170
505381
505529
505672
505839
506056
506314
506528
506670
506807
507083
507229
507465
507701
507861
508079
508337
508615
508754
508995
509142
509247
509355
509702
509847
510099
510238
510497
510709
510840
511108
511259
511398
511654
511817
511992
512216
512333
512485
512748
512982
513271
513401
513662
513819
513943
514137
514406
514662
514820
515080
515290
515591
515909
516177
516442
516734
517062
517215
517493
517622
517880
518076
518301
518555
518833
518980
519179
519399
519616
519866
520030
520189
520316
520554
520850
521110
521293
521517
521767
521887
522215
522755
522912
523244
523506
523763
524056
524372
524625
524773
525085
525344
525599
525905
526099
526301
526453
526548
526813
527091
527425
527825
528072
528481
528834
529014
529282
529608
529843
529982
530197
530490
530730
530881
531024
531147
531388
531616
531986
532192
532417
532663
532857
533181
533478
533901
534209
534655
534980
535177
535349
535592
535843
537031
537225
537432
537655
537995
538223
538561
538791
539039
539135
539370
539536
539833
539998
540394
540674
540922
541097
541249
541467
541744
542032
542331
542622
542788
543031
543269
543572
543803
544032
544309
544536
544688
544945
545204
545500
545754
545904
546154
546379
546534
546829
547007
547162
547400
547556
547934
548091
548525
548950
549126
549356
549596
549708
549810
550004
550260
550494
550725
550987
551276
551434
551750
551973
552230
552610
552802
552972
553242
553503
553837
554057
554194
554424
554660
554863
555119
555351
555649
555936
556212
556403
556642
556835
557082
557319
557525
557763
557990
558252
558385
558465
558840
558974
559458
559630
559963
560199
560433
560694
560818
561096
561304
561480
561823
562139
562351
562493
562749
562926
563073
563366
563559
563849
563987
564246
564456
564817
564993
565158
565370
565572
565824
566113
566423
566583
566863
567036
567401
567602
567859
568106
568385
568528
568921
569078
569382
569816
570138
570404
570542
570762
571209
571405
571705
572066
572271
572470
572707
572986
573227
573356
573467
573772
574014
574248
574384
574640
574908
575295
575462
575620
575853
576096
576404
576549
576792
576998
577302
577431
577639
578095
578345
578470
578594
578711
578842
578964
579136
579267
579383
579534
579894
580214
580359
580484
580873
581113
581249
581508
581656
581757
581962
582220
582448
582759
582946
583157
583293
583531
583817
584125
584423
584634
584870
585015
585364
585537
585846
586001
586292
586516
586906
587130
587381
587677
587883
588030
588298
588553
588767
589102
589340
589666
589821
589939
590077
590307
590624
590789
591054
591313
591590
591864
592151
592447
592650
592865
593155
593370
593505
593768
594047
594292
594606
594887
595135
595384
595644
595879
596164
596508
596658
596785
597017
597157
597379
597647
597812
598085
598262
598490
598783
599024
599268
599403
599505
599762
599885
600209
600499
600651
600909
601193
601377
601733
601950
602161
602429
602734
602901
603013
603147
603274
603533
603681
603746
604026
604419
604686
605016
605341
605673
605858
606000
606212
606447
606642
606751
606975
607132
607464
607747
607873
608068
608263
608509
608781
609050
609271
609536
609859
610186
610520
610755
610887
611011
611224
611467
611759
612013
612146
612365
612647
612799
613085
613395
613675
614037
614444
614720
614949
615202
615478
615781
615951
616220
616448
616838
617058
617349
617584
617862
618197
618519
618746
618994
619123
619250
619497
619654
619796
620027
620160
620279
620516
620924
621201
621727
621979
622260
622397
622590
622705
622949
623168
623394
623598
623825
623957
624059
624196
624338
624599
624744
625012
625310
625531
625845
626101
626247
626596
626931
627077
627420
627758
627960
628204
628363
628628
628951
629260
629472
629729
629882
630025
630162
630521
630802
631071
631301
631534
631763
631996
632270
632496
632752
632969
633252
633512
633649
633806
634086
634268
634512
634835
635037
635325
635468
635764
635977
636218
636454
636721
637096
637476
637745
637988
638107
638339
638587
638854
639139
639412
639553
639862
640051
640200
640535
640769
641037
641304
641503
641706
641974
642225
642430
642730
643054
643367
643615
643852
644003
644147
644265
644538
644687
644894
645050
645243
645415
645638
645916
646069
646222
646477
646625
646878
647140
647438
647681
648057
648300
648671
649016
649236
649446
649776
