98
445
657
875
984
1272
1494
1857
2119
2259
2523
2656
2793
2931
3129
3328
3722
3846
3993
4239
4522
4712
4852
5073
5246
5434
5651
5789
6031
6195
6434
6708
6944
7280
7586
7752
7876
8157
8308
8541
8875
9115
9295
9431
9671
9951
10167
10497
10830
11080
11341
11653
11857
12016
12278
12526
12757
12994
13198
13545
13775
14015
14290
14592
14787
14926
15240
15437
15627
15934
16075
16320
16728
16841
16966
17281
17420
17643
17922
18216
18432
18637
18908
19112
19256
19387
19742
19888
20101
20301
20451
20708
20907
21026
21158
21272
21400
21708
21974
22144
22268
22384
22508
22650
22883
23260
23424
23643
23766
24074
24225
24362
24485
24725
24886
25302
25441
25678
25996
26299
26434
26580
26824
26969
27215
27517
27825
27972
28218
28449
28640
28862
29023
29342
29520
29788
30067
30283
30592
30745
31009
31248
31586
31846
32007
32248
32518
32730
32990
33127
33260
33396
33766
33922
34267
34467
34722
34980
35243
35535
35675
35783
35934
36077
36293
36559
36695
36917
37062
37294
37539
37773
37975
38116
38386
38629
38869
39000
39128
39262
39469
39665
39789
39918
40261
40394
40704
40868
41240
41383
41656
41807
42127
42429
42655
42911
43051
43401
43559
43681
43836
43982
44220
44451
44623
44750
44867
45031
45166
45277
45563
45733
46006
46108
46333
46465
46733
46856
47061
47247
47337
47591
48023
48211
48397
48734
49058
49189
49414
49568
49689
49931
50118
50446
50738
51054
51186
51305
51413
51649
51907
52177
52484
52930
53167
53350
53744
54126
54326
54463
54749
54925
55140
55423
55676
55805
55977
56226
56373
56491
56848
57013
57265
57529
57795
58084
58343
58581
58819
59048
59365
59632
59899
60102
60414
60610
60810
60959
61208
61497
61691
61905
62122
62275
62511
62786
63066
63252
63542
63747
63889
63995
64126
64350
64606
64851
65062
65347
65606
65875
66040
66208
66457
66693
66885
67060
67209
67488
67777
67952
68101
68381
68625
68874
69148
69402
69629
70018
70259
70521
70740
70998
71128
71390
71619
72357
72516
72766
72956
73171
73650
73831
74052
74208
74412
74769
74919
75151
75483
75752
75956
76106
76248
76511
76705
76991
77145
77565
77740
78121
78272
78556
78945
79286
79456
79792
80070
80306
80426
80564
80997
81149
81382
81641
81872
82136
82394
82669
82974
83177
83358
83682
83893
84049
84297
84563
84817
85108
85321
85440
85589
85835
86051
86294
86493
86817
87088
87322
87612
87870
88117
88384
88532
88797
89010
89238
89465
89664
89791
89931
90078
90286
90514
90785
91085
91385
91625
91867
92123
92272
92634
92797
93193
93431
93665
93961
94087
94251
94460
94667
94990
95285
95640
95810
96258
96421
96749
96895
97009
97129
97392
97641
97931
98149
98410
98715
98849
98971
99113
99244
99666
99834
100169
100323
100440
100695
101119
101297
101526
101781
102050
102308
102629
102859
103123
103232
103516
103755
104017
104205
104520
104702
105113
105274
105589
105822
106011
106264
106408
106651
106875
107102
107386
107651
107845
107962
108206
108479
108622
108743
108843
108980
109095
109376
109528
109780
109930
110137
110313
110450
110806
110970
111232
111370
111512
111751
111883
111987
112126
112409
112744
112938
113258
113443
113693
113815
114092
114350
114602
114759
115033
115299
115470
115735
116009
116281
116422
116592
116720
117007
117278
117521
117743
117861
118008
118238
118367
118543
118763
119035
119298
119643
119923
120180
120363
120607
120854
121020
121270
121552
121717
121840
122080
122394
122518
122652
123037
123204
123462
123618
123760
123890
124019
124263
124445
124683
125015
125215
125350
125734
125897
126168
126402
126603
126916
127058
127240
127415
127649
127972
128196
128485
128727
128837
128984
129094
129205
129464
129597
129855
130251
130500
130854
131108
131346
131761
132031
132364
132646
132971
133202
133553
133850
134073
134405
134628
134819
135056
135292
135628
135776
135885
136296
136471
136684
136808
137043
137226
137346
137464
137696
137858
137999
138243
138382
138492
138765
139055
139435
139637
139808
140040
140289
140570
140883
141168
141478
141770
142027
142307
142526
142800
143061
143236
143458
143570
143845
144116
144325
144539
144699
144916
145088
145326
145657
145774
146048
146192
146281
146445
146757
147014
147266
147494
147760
147906
148001
148117
148440
148587
148800
148900
149164
149354
149590
149856
150179
150393
150564
150698
150969
151207
151465
151795
152144
152343
152519
152797
152931
153032
153291
153473
153593
153860
154131
154255
154390
154619
154865
155006
155274
155487
155883
156098
156442
156709
156953
157209
157368
157724
157901
158102
158358
158609
158867
159006
159137
159456
159620
159863
160204
160410
160689
160843
160945
161194
161349
161602
161736
161889
162035
162318
162537
162938
163087
163341
163474
163703
164030
164212
164470
164709
164940
165132
165274
165559
165712
165930
166229
166527
166904
167058
167422
167734
168008
168154
168308
168635
168891
168987
169147
169289
169418
169558
169815
169955
170223
170378
170635
170763
170889
171180
171337
171635
171809
171963
172162
172461
172661
172788
172952
173119
173557
173714
173843
174092
174344
174611
174871
175025
175212
175515
175747
175981
176218
176453
176780
177037
177259
177408
177669
177894
178029
178281
178411
178543
178800
178987
179239
179378
179520
179670
179798
180048
180210
180371
180579
180854
181044
181142
181303
181531
181765
182115
182259
182605
182883
183140
183257
183395
183529
183842
184000
184122
184240
184385
184702
184856
185059
185337
185659
185820
186121
186319
186550
186686
186952
187147
187422
187600
187860
188151
188493
188871
189053
189301
189474
189695
189869
189998
190254
190620
191067
191285
191419
191575
191832
192086
192287
192529
192717
192946
193299
193524
193874
194160
194424
194515
194667
194875
195138
195297
195543
195775
195917
196220
196398
196565
196990
197111
197384
197623
197882
197985
198162
198281
198524
198650
198811
198964
199193
199337
199440
199599
199812
199978
200247
200505
200984
201206
201468
201644
201989
202160
202326
202712
202987
203127
203481
203618
203864
204011
204226
204463
204757
205066
205501
205764
206012
206166
206367
206532
206919
207110
207227
207466
207791
207970
208191
208549
208809
209047
209289
209508
209746
209941
210172
210293
210582
210702
210869
211202
211497
211708
211972
212211
212399
212644
212760
212873
213269
213599
213754
213850
214154
214440
214710
214969
215248
215529
215683
215866
216042
216146
216403
216650
216795
217105
217303
217451
217731
217963
218197
218411
218578
218818
218969
219204
219449
219589
219854
220110
220385
220628
220856
221018
221330
221429
221567
221881
222074
222244
222499
222785
223041
223341
223496
223697
223892
224059
224337
224552
224743
224982
225213
225634
225795
226136
226382
226523
226623
226789
226907
227193
227380
227535
227818
227945
228190
228313
228550
228824
229094
229247
229567
229826
230047
230246
230331
230485
230748
230989
231104
231240
231473
231674
231995
232206
232338
232477
232807
232936
233186
233420
233640
233796
234184
234301
234434
234694
234840
235111
235299
235555
235801
236099
236235
236345
236701
236988
237262
237449
237660
237900
238188
238398
238521
238757
239049
239280
239465
239660
239925
240190
240317
240525
240761
240878
241166
241424
241498
241682
241952
242260
242628
242896
243155
243417
243614
243750
243869
244119
244308
244620
244886
245112
245344
245602
245765
246059
246273
246430
246663
246802
247015
247226
247504
247623
247905
248130
248257
248430
248725
248971
249109
249355
249506
249731
249952
250187
250357
250511
250707
250853
250973
251170
251326
251463
251689
251795
251989
252236
252434
252576
252701
252944
253120
253292
253491
253747
253977
254114
254239
254513
254840
255007
255262
255530
255767
255876
256086
256326
256628
256787
257030
257174
257433
257568
257872
258067
258295
258639
258877
258983
259269
259484
259708
259841
260033
260238
260406
260585
260842
260986
261211
261362
261503
261744
262059
262200
262461
262673
262822
263039
263247
263517
263741
263994
264122
264380
264579
264787
264986
265216
265387
265582
265833
266092
266320
266544
266806
267031
267137
267282
267653
267909
268120
268365
268505
268865
269103
269212
269343
269427
269675
269880
270044
270273
270471
270676
270785
270918
271119
271372
271495
271858
272004
272195
272508
272787
272918
273056
273150
273278
273526
273702
273955
274080
274324
274568
274784
274997
275230
275476
275749
276271
276481
276669
276880
277047
277235
277554
277887
278026
278274
278489
278737
278884
278975
279288
279427
279736
279905
280131
280404
280636
280932
281119
281367
281526
281617
281742
281968
282199
282373
282502
282648
282813
283063
283236
283458
283607
283723
283860
284103
284328
284599
284871
285001
285122
285315
285493
285613
285751
285957
286101
286305
286561
286666
287005
287136
287250
287482
287819
287940
288079
288299
288473
288742
288982
289050
289352
289508
289707
289998
290138
290380
290550
290722
291048
291175
291438
291744
291955
292137
292456
292627
292857
292995
293278
293410
293611
293932
294071
294189
294536
294671
294916
295132
295399
295542
295733
295986
296167
296307
296435
296548
296837
296999
297088
297219
297425
297655
297913
298162
298412
298683
298789
299041
299287
299454
299613
299825
300120
300270
300493
300758
300966
301132
301355
301512
301619
301887
302148
302286
302414
302670
302796
303169
303313
303521
303755
303851
304007
304222
304490
304695
304837
305026
305152
305375
305734
305982
306271
306610
306850
307024
307299
307428
307746
307998
308107
308410
308580
308808
309134
309457
309834
309991
310125
310251
310484
310748
311046
311296
311526
311817
312022
312225
312422
312614
312891
313038
313131
313271
313403
313613
313892
314117
314276
314512
314827
315079
315316
315477
315690
315906
316032
316130
316246
316480
316626
316843
317072
317212
317481
317733
317839
318011
318166
318409
318605
318752
318902
319011
319216
319430
319656
319802
320060
320288
320424
320772
320915
321218
321419
321662
321890
322032
322167
322299
322444
322581
322900
323042
323233
323411
323581
323754
323903
324010
324269
324535
324701
324831
325039
325282
325530
325681
325964
326231
326380
326696
326979
327168
327407
327640
327792
327937
328154
328359
328669
328909
329167
329322
329552
329850
329997
330102
330466
330690
330967
331211
331412
331583
331774
331898
332109
332343
332621
332829
333024
333361
333670
333807
333913
334188
334456
334716
334874
335141
335401
335574
335738
335986
336184
336291
336536
336707
336910
337168
337452
337678
337949
338289
338518
338718
338980
339343
339585
339890
340144
340293
340397
340629
340781
341066
341407
341699
341991
342281
342488
342725
342878
343113
343311
343614
343886
344107
344248
344354
344510
344739
344900
345129
345489
345776
345968
346260
346544
346876
347095
347244
347372
347491
347634
347923
348090
348318
348432
348714
348912
349136
349367
349648
349877
350186
350413
350557
350910
351059
351268
351507
351865
352166
352362
352700
353010
353316
353508
353788
354097
354362
354627
354882
355196
355465
355823
356136
356299
356425
356687
356952
357324
357758
357888
358357
358593
358739
358852
359210
359367
359680
359927
360315
360559
360683
361024
361324
361670
361891
362122
362378
362548
362777
363020
363145
363255
363446
363575
363727
363832
363970
364166
364351
364506
364750
364923
365203
365406
365742
365902
366233
366469
366680
367038
367325
367444
367745
367996
368150
368335
368490
368835
368988
369214
369473
369708
369918
370181
370410
370542
370753
370909
371145
371328
371569
371779
371938
372059
372275
372421
372619
372965
373089
373282
373622
373826
373962
374107
374243
374755
375137
375312
375535
375800
376045
376371
376625
376944
377223
377339
377564
377825
378055
378439
378593
378735
378973
379202
379448
379573
379825
380079
380331
380472
380689
380906
381059
381334
381585
381813
381960
382252
382550
382880
383281
383466
383588
383829
383946
384315
384484
384748
385056
385205
385326
385568
385950
386100
386328
386598
386885
387034
387171
387278
387440
387695
387816
388151
388296
388583
388915
389293
389678
389937
390165
390279
390410
390791
390959
391333
391653
391995
392184
392380
392483
392766
392998
393268
393423
393731
393905
394132
394374
394509
394701
394976
395186
395445
395789
396034
396161
396262
396525
396824
396969
397070
397325
397638
397962
398308
398480
398781
399020
399323
399590
399871
400044
400329
400531
400713
400904
401231
401535
401790
402059
402271
402659
402985
403183
403307
403453
403679
403822
403930
404072
404350
404602
404827
404969
405242
405408
405509
405963
406118
406463
406625
406925
407195
407420
407654
407960
408265
408487
408677
409003
409127
409248
409399
409770
409921
410060
410180
410459
410623
410959
411121
411336
411567
411857
412131
412514
412793
412927
413257
413396
413502
413617
413926
414061
414568
414738
414944
415210
415326
415446
415802
415967
416141
416350
416462
416632
416887
417146
417382
417684
417868
418085
418297
418459
418793
418943
419182
419397
419652
419883
420004
420270
420479
420710
421012
421186
421306
421627
421881
422134
422396
422529
422741
422974
423286
423439
423713
424081
424337
424589
424739
424924
425222
425599
425795
426012
426150
426259
426413
426688
426870
427177
427443
427685
427905
428126
428264
428396
428546
428672
428839
429032
429315
429600
429845
430032
430351
430624
430770
431083
431298
431443
431568
431840
431991
432324
432627
432887
433032
433148
433285
433516
433781
433965
434178
434353
434571
434804
434943
435069
435278
435501
435775
435989
436331
436615
436732
436875
437108
437347
437465
437599
437760
437890
438025
438163
438434
438606
438798
439048
439236
439367
439711
439861
440088
440345
440651
440889
441104
441416
441721
441996
442192
442479
442815
443107
443416
443554
443690
444046
444197
444351
444528
444784
445204
445620
445916
446217
446484
446730
446995
447183
447326
447456
447863
448029
448369
448594
448943
449219
449362
449668
449986
450258
450517
450798
451085
451231
451356
451617
451778
452045
452370
452622
452758
453114
453292
453591
453838
454074
454479
454843
455038
455391
455615
455830
455985
456269
456486
456732
456970
457107
457356
457725
457943
458183
458349
458561
458701
458836
459067
459228
459433
459691
459849
460075
460246
460407
460582
460836
461083
461388
461694
461872
462016
462152
462277
462435
462659
462898
463033
463168
463350
463575
463798
463945
464177
464367
464674
464933
465184
465454
465616
465763
465958
466117
466446
466753
467100
467233
467431
467631
467933
468069
468398
468736
469008
469252
469533
469787
470048
470210
470505
470675
470784
470938
471288
471453
471797
471945
472170
472521
472797
473158
473432
473648
473781
474005
474381
474800
475051
475352
475592
475827
476211
476457
476582
476903
477264
477561
477714
478200
478353
478638
479024
479368
479665
479950
480196
480451
480585
480895
481139
481443
481699
481908
482033
482176
482412
482598
482862
483119
483317
483499
483651
483862
484152
484359
484494
484623
484867
484969
485210
485376
485658
485906
486181
486664
486960
487184
487410
487700
487962
488322
488464
488838
489013
489293
489476
489682
489853
490087
490311
490448
490727
490901
491131
491391
491661
491988
492244
492530
492747
493015
493254
493535
493676
493919
494322
494622
494852
495165
495385
495684
495919
496195
496478
496734
497065
497261
497454
497733
497964
498170
498409
498616
498869
499135
499370
499688
499856
500096
500311
500464
500714
500877
501029
501210
501326
501573
501835
502062
502307
502523
502838
503056
503254
503481
503765
504053
504314
504500
504717
504953
505173
505388
505501
505658
505845
506058
506316
506528
506677
506816
507218
507493
507818
508090
508187
508349
508636
508915
509235
509735
509847
510141
510493
510830
511110
511261
511418
511679
511819
511988
512222
512493
512738
512985
513246
513410
513656
513824
513934
514251
514495
514680
515135
515287
515579
515906
516064
516172
516440
516732
517061
517215
517495
517639
517878
518078
518299
518449
518550
518834
518982
519176
519397
519638
519855
520042
520242
520579
520847
521104
521297
521512
521767
521893
522216
522351
522477
522766
522906
523243
523507
523756
524054
524371
524627
524773
525086
525256
525339
525598
525905
526100
526297
526447
526809
527090
527422
527825
528072
528484
528834
529014
529287
529611
529848
529985
530195
530492
530733
530878
531033
531151
531391
531621
531986
532196
532423
532669
532861
533182
533480
533910
534078
534220
534361
534655
534985
535181
535342
535596
535834
536101
536391
536657
536969
537207
537357
537658
537813
537999
538269
538561
538777
538928
539139
539363
539522
539825
539998
540394
540658
540923
541097
541250
541471
541745
542031
542325
542619
542783
543032
543268
543568
543797
544026
544306
544539
544684
544938
545201
545497
545750
545900
546151
546372
546534
546826
547003
547163
547393
547549
547929
548088
548519
548946
549125
549356
549589
549698
549799
550001
550255
550495
550726
550984
551270
551432
551746
551974
552225
552475
552610
552802
552967
553240
553495
553723
553823
554055
554191
554422
554654
554861
555115
555349
555650
555927
556206
556405
556640
556836
557077
557316
557525
557764
557989
558250
558378
558468
558617
558840
558977
559453
559631
559964
560201
560435
560699
560816
561098
561308
561482
561828
562142
562353
562496
562754
562929
563077
563367
563560
563853
563984
564249
564459
564818
564998
565164
565375
565576
565824
566114
566425
566582
566868
567037
567405
567605
567733
567860
568104
568388
568519
568919
569075
569381
569818
570127
570401
570540
570764
571072
571213
571401
571704
572069
572275
572467
572699
572982
573225
573350
573460
573773
574015
574242
574375
574637
574904
575293
575457
575614
575849
576090
576401
576549
576787
576998
577294
577428
577638
577873
578098
578228
578342
578461
578585
578706
578850
578965
579129
579268
579379
579532
579663
579898
580208
580358
580478
580866
581103
581244
581503
581665
581754
581956
582217
582445
582756
582949
583150
583291
583526
583814
584121
584421
584634
584868
585010
585358
585531
585846
586003
586286
586515
586908
587132
587382
587678
587886
588027
588300
588553
588769
589093
589339
589666
589931
590073
590306
590625
590795
591055
591317
591592
591861
592153
592451
592651
592866
593155
593374
593505
593768
594048
594291
594608
594889
595136
595386
595637
595877
596161
596508
596648
596778
597017
597155
597379
597639
597810
598082
598264
598489
598774
599023
599262
599392
599505
599759
599876
600199
600496
600647
600906
601187
601370
601609
601724
601942
602158
602422
602731
602894
603010
603146
603265
603527
603687
603747
604019
604146
604417
604681
605012
605334
605671
605857
606000
606205
606442
606641
606760
606966
607131
607456
607744
607863
608064
608253
608501
608775
609042
609263
609528
609855
610180
610518
610761
610878
611003
611220
611461
611753
612016
612139
612367
612642
612796
613082
613389
613672
614029
614442
614721
614947
615200
615475
615779
615949
616215
616448
616835
617058
617348
617584
617862
618193
618516
618748
618992
619116
619247
619498
619644
619795
620019
620157
620283
620516
620922
621202
621722
621979
622258
622395
622588
622945
623172
623384
623595
623816
623952
624057
624193
624333
624595
624740
625011
625315
625532
625842
626100
626240
626596
626932
627079
627418
627756
627952
628200
628357
628628
628950
629260
629478
629727
629880
630027
630166
630270
630513
630800
631072
631300
631525
631758
631990
632266
632495
632632
632750
632972
633255
633503
633641
633804
634080
634266
634509
634826
635033
635318
635462
635762
635974
636125
636215
636452
636714
637087
637472
637740
637979
638107
638336
638582
638849
639137
639408
639549
639854
640047
640196
640531
640765
640928
641033
641300
641504
641704
641968
642219
642428
642726
643051
643364
643612
643848
643996
644141
644259
644530
644687
644893
645048
645241
645413
645640
645917
646063
646219
646477
646625
646877
647140
647441
647682
648054
648301
648671
649018
649238
649448
649778
