226
463
705
942
1185
1428
1670
1902
2143
2392
2634
2872
3113
3352
3592
3837
4081
4323
4559
4804
5057
5299
5540
5780
6021
6263
6511
6751
6989
7225
7470
7707
7945
8179
8417
8651
8895
9139
9372
9609
9848
10094
10334
10572
10808
11042
11277
11517
11764
11996
12234
12473
12719
12958
13201
13439
13683
13922
14168
14417
14661
14899
15144
15392
15637
15874
16116
16355
16597
16841
17085
17324
17561
17803
18048
18291
18530
18769
19008
19249
19498
19736
19980
20216
20462
20707
20951
21190
21434
21674
21925
22174
22418
22657
22901
23148
23390
23628
23868
24108
24344
24586
24831
25067
25304
25544
25789
26025
26264
26500
26742
26981
27224
27464
27702
27941
28186
28436
28677
28910
29148
29389
29631
29873
30112
30350
30591
30837
31083
31328
31564
31801
32040
32283
32526
32766
33006
33239
33480
33721
33961
34194
34432
34666
34909
35152
35392
35632
35869
36110
36352
36592
36826
37062
37299
37537
37780
38013
38253
38486
38727
38963
39202
39436
39670
39907
40147
40387
40623
40858
41095
41332
41569
41809
42040
42271
42505
42742
42981
43214
43452
43685
43927
44168
44410
44645
44886
45125
45371
45616
45856
46096
46338
46585
46825
47065
47303
47542
47781
48022
48266
48503
48743
48987
49237
49475
49713
49950
50195
50433
50677
50916
51158
51391
51633
51877
52117
52351
52589
52829
53073
53320
53563
53804
54041
54280
54529
54768
55002
55235
55474
55714
55955
56194
56435
56673
56917
57162
57404
57642
57885
58124
58367
58610
58846
59083
59320
59562
59800
60035
60269
60505
60741
60982
61224
61461
61697
61935
62184
62424
62665
62897
63133
63368
63610
63852
64085
64319
64559
64806
65048
65285
65524
65763
66004
66244
66490
66723
66962
67197
67441
67675
67909
68141
68377
68608
68847
69088
69325
69558
69793
70038
70278
70516
70753
70988
71222
71461
71704
71940
72171
72404
72646
72882
73120
73354
73591
73827
74066
74310
74543
74781
75020
75268
75506
75743
75979
76220
76462
76707
76953
77196
77433
77676
77927
78170
78409
78649
78894
79134
79377
79621
79865
80101
80347
80594
80837
81074
81317
81562
81810
82058
82299
82539
82782
83035
83279
83521
83760
83999
84236
84476
84723
84962
85200
85442
85691
85931
86171
86411
86655
86893
87135
87378
87623
87858
88099
88343
88583
88816
88991
89291
89531
89769
90008
90245
90475
90715
90958
91194
91423
91656
91896
92137
92377
92614
92850
93086
93329
93572
93808
94039
94272
94507
94745
94983
95213
95450
95680
95925
96164
96402
96633
96867
97102
97339
97576
97810
98040
98267
98500
98735
98956
99194
99422
99656
99881
100115
100347
100568
100798
101028
101268
101494
101716
101940
102161
102382
102606
102829
103048
103269
103484
103707
103937
104156
104371
104594
104823
105042
105269
105504
105727
105954
106180
106415
106645
106879
107017
107322
107648
107755
107844
107986
108113
108228
108463
108678
108909
109268
109419
109495
109598
109726
110113
110296
110517
110752
110972
111198
111425
111659
111887
112117
112346
112578
112808
113047
113285
113516
113878
114213
114451
114682
114907
115137
115367
115601
115834
116065
116293
116518
116749
116988
117222
117451
117681
117919
118152
118391
118623
118857
119086
119327
119564
119794
120021
120252
120489
120719
120955
121194
121428
121658
121900
122147
122386
122616
122852
123090
123328
123566
123803
124039
124272
124510
124751
124989
125222
125462
125700
125941
126184
126430
126674
126911
127155
127404
127645
127888
128127
128367
128613
128861
129105
129345
129592
129844
130090
130330
130570
130754
131055
131297
131537
131772
132005
132239
132479
132712
132945
133180
133417
133650
133893
134139
134374
134608
134849
135097
135336
135571
135802
136041
136272
136512
136750
136980
137210
137448
137689
137919
138152
138384
138621
138849
139088
139327
139562
139792
140026
140267
140499
140734
140968
141201
141433
141671
141913
142145
142379
142611
142855
143088
143328
143560
143795
144027
144267
144511
144744
144975
145211
145454
145690
145924
146154
146387
146620
146859
147100
147330
147561
147797
148039
148274
148506
148736
148969
149202
149440
149676
149905
150138
150367
150607
150839
151074
151301
151533
151764
152001
152235
152468
152700
152930
153165
153403
153636
153863
154093
154325
154555
154789
155022
155255
155482
155716
155955
156187
156416
156645
156880
157112
157349
157584
157816
158044
158281
158518
158750
158977
159206
159437
159667
159901
160134
160361
160587
160820
161060
161289
161520
161749
161980
162209
162446
162684
162909
163137
163368
163604
163835
164067
164293
164522
164748
164982
165218
165449
165679
165912
166147
166382
166616
166846
167079
167309
167542
167778
168008
168241
168467
168702
168937
169171
169400
169630
169865
170098
170335
170568
170802
171029
171263
171501
171735
171960
172188
172419
172650
172883
173120
173347
173576
173810
174054
174287
174520
174750
174983
175216
175452
175690
175918
176148
176379
176617
176847
177082
177312
177544
177773
178010
178250
178482
178717
178946
179182
179416
179651
179879
180102
180330
180562
180796
181025
181255
181479
181712
181950
182180
182406
182635
182869
183100
183332
183565
183795
184019
184254
184493
184719
184945
185177
185409
185643
185879
186117
186347
186578
186811
187051
187282
187517
187745
187973
188200
188434
188666
188889
189113
189334
189564
189793
190024
190241
190465
190687
190918
191144
191372
191593
191817
192042
192273
192495
192721
192946
193168
193394
193625
193861
194087
194317
194547
194787
195020
195253
195483
195716
195945
196181
196416
196646
196875
197105
197342
197578
197812
198041
198272
198508
198749
198988
199220
199457
199694
199935
200173
200414
200646
200880
201055
201348
201589
201818
202052
202280
202517
202751
202989
203220
203453
203684
203925
204166
204404
204639
204871
205109
205349
205586
205818
206047
206280
206515
206753
206984
207216
207446
207683
207922
208161
208388
208620
208857
209095
209337
209570
209805
210040
210283
210525
210763
210992
211223
211459
211699
211938
212171
212406
212639
212880
213122
213361
213590
213823
214060
214298
214538
214769
215005
215234
215472
215712
215946
216173
216406
216639
216876
217110
217346
217581
217813
218047
218289
218522
218752
218982
219220
219450
219687
219922
220160
220392
220628
220867
221102
221335
221572
221814
222049
222286
222525
222762
222995
223234
223475
223709
223939
224171
224408
224640
224875
225111
225344
225575
225810
226052
226285
226516
226742
226975
227204
227439
227671
227899
228122
228354
228590
228822
229050
229277
229507
229735
229971
230207
230437
230622
230896
231135
231366
231598
231828
232055
232285
232518
232757
232986
233220
233450
233691
233927
234165
234397
234632
234868
235007
235345
235582
235815
236050
236288
236521
236754
236987
237221
237459
237698
237940
238179
238421
238666
238915
239155
239399
239637
239883
240118
240361
240602
240838
241073
241312
241555
241792
242029
242266
242508
242748
242989
243232
243470
243705
243944
244193
244428
244663
244898
245140
245375
245614
245853
246092
246325
246569
246813
247051
247286
247525
247767
248006
248248
248487
248728
248963
249204
249448
249687
249924
250160
250399
250642
250886
251124
251365
251600
251843
252086
252328
252564
252797
253034
253278
253525
253764
254004
254240
254485
254729
254970
255206
255444
255678
255922
256167
256406
256641
256877
257124
257364
257604
257838
258075
258309
258551
258796
259033
259265
259505
259754
259994
260236
260477
260720
260959
261201
261446
261686
261918
262159
262408
262649
262887
263122
263364
263610
263853
264092
264332
264570
264814
265058
265298
265531
265766
266002
266243
266483
266719
266956
267192
267437
267680
267920
268160
268398
268633
268877
269122
269361
269595
269830
270077
270313
270552
270786
271022
271255
271496
271737
271973
272204
272442
272687
272922
273156
273388
273628
273864
274105
274342
274579
274810
275047
275289
275522
275749
275981
276218
276451
276686
276924
277155
277382
277614
277855
278087
278318
278546
278779
279008
279243
279475
279705
279932
280159
280395
280627
280860
281082
281311
281539
281773
282005
282235
282464
282693
282927
283162
283393
283620
283846
284076
284306
284541
284768
284997
285223
285456
285695
285923
286152
286380
286615
286846
287080
287310
287537
287767
287995
288230
288454
288679
288907
289130
289355
289584
289816
290044
290273
290498
290727
290965
291196
291418
291650
291880
292112
292341
292574
292805
293031
293262
293495
293728
293955
294189
294426
294661
294898
295138
295374
295606
295843
296056
296318
296560
296790
297021
297259
297495
297733
297964
298202
298438
298684
298918
299159
299396
299640
299880
300115
300361
300599
300834
301068
301316
301556
301788
302016
302252
302496
302735
302973
303205
303444
303691
303935
304176
304402
304643
304882
305126
305365
305594
305836
306072
306314
306551
306796
307049
307264
307499
307746
307993
308231
308466
308708
308956
309194
309432
309668
309910
310148
310382
310630
310870
311105
311345
311595
311836
312072
312306
312553
312798
313040
313279
313515
313756
313998
314243
314479
314717
314955
315198
315441
315682
315924
316165
316405
316651
316896
317147
317386
317628
317868
318122
318373
318620
318858
319107
319363
319612
319850
320092
320341
320589
320838
321085
321331
321575
321827
322079
322326
322573
322818
323061
323318
323542
323804
324048
324283
324540
324785
325034
325276
325521
325765
326009
326256
326496
326738
326984
327239
327484
327724
327969
328229
328446
328684
328929
329175
329402
329656
329899
330140
330375
330614
330867
331094
331334
331564
331803
332037
332274
332512
332751
332983
333213
333373
333686
333872
333992
334163
334394
334628
334871
335107
335353
335587
335821
336056
336298
336544
336779
337019
337258
337505
337745
337988
338229
338480
338722
338963
339206
339451
339690
339937
340189
340425
340652
340899
341142
341387
341624
341856
342101
342336
342583
342825
343075
343312
343549
343781
344030
344275
344510
344746
344977
345224
345460
345700
345933
346164
346405
346651
346903
347134
347373
347611
347853
348096
348339
348529
348812
349047
349291
349534
349769
350000
350237
350487
350727
350966
351202
351443
351682
351925
352167
352405
352636
352872
353117
353356
353588
353820
354057
354290
354530
354769
355006
355236
355473
355724
355960
356195
356429
356673
356910
357148
357381
357614
357844
358087
358328
358561
358792
359025
359266
359502
359738
359976
360214
360444
360679
360920
361152
361390
361623
361862
362091
362329
362576
362818
363048
363286
363539
363782
364020
364258
364500
364748
364995
365236
365476
365722
365971
366220
366460
366703
366950
367197
367444
367694
367941
368187
368434
368692
368935
369182
369427
369677
369918
370169
370416
370664
370903
371151
371407
371658
371902
372150
372399
372654
372911
373158
373399
373654
373915
374163
374404
374651
374901
375150
375395
375643
375885
376128
376378
376626
376873
377116
377360
377603
377852
378101
378344
378578
378827
379080
379325
379560
379805
380052
380302
380553
380794
381044
381291
381549
381795
382045
382292
382544
382790
383044
383297
383550
383794
384048
384303
384557
384804
385051
385298
385552
385810
386060
386305
386552
386811
387062
387310
387558
387808
388059
388315
388567
388819
389066
389327
389582
389837
390087
390340
390592
390849
391107
391359
391603
391864
392121
392373
392622
392868
393122
393375
393632
393879
394124
394379
394641
394891
395131
395382
395634
395888
396140
396387
396635
396884
397141
397390
397640
397888
398140
398387
398639
398896
399149
399396
399649
399908
400161
400410
400658
400907
401159
401417
401671
401917
402169
402430
402683
402930
403183
403436
403693
403952
404204
404453
404705
404967
405221
405470
405721
405973
406227
406484
406739
406991
407237
407504
407765
408026
408275
408530
408783
409043
409298
409550
409795
410058
410319
410574
410827
411082
411338
411599
411858
412116
412366
412625
412885
413139
413391
413639
413885
414139
414393
414646
414895
415148
415408
415664
415913
416165
416413
416671
416933
417184
417431
417690
417948
418203
418446
418695
418947
419204
419465
419719
419971
420226
420493
420750
421004
421256
421513
421767
422029
422281
422534
422784
423047
423301
423555
423810
424066
424322
424585
424846
425103
425355
425617
425873
426128
426380
426633
426882
427142
427398
427652
427901
428163
428420
428678
428932
429187
429439
429700
429956
430213
430461
430719
430979
431233
431487
431740
431995
432143
432504
432687
432994
433255
433520
433776
434024
434276
434528
434785
435043
435295
435547
435802
436066
436324
436577
436833
437093
437353
437614
437874
438130
438388
438653
438910
439162
439416
439677
439930
440186
440441
440697
440951
441215
441469
441725
441981
442241
442499
442757
443015
443270
443525
443793
444051
444306
444560
444819
445080
445343
445597
445850
446103
446371
446628
446882
447135
447395
447653
447917
448176
448432
448685
448956
449212
449468
449726
449982
450236
450502
450767
451029
451292
451564
451824
452084
452346
452609
452873
453138
453397
453656
453921
454194
454456
454711
454972
455237
455503
455770
456033
456287
456552
456820
457080
457334
457592
457851
458112
458377
458632
458889
459153
459424
459686
459949
460213
460475
460743
461011
461276
461532
461802
462070
462336
462596
462863
463126
463394
463659
463924
464187
464459
464722
464979
465240
465502
465759
466021
466276
466537
466796
467065
467323
467583
467846
468114
468377
468644
468905
469168
469430
469697
469957
470210
470467
470729
470992
471255
471512
471770
472030
472301
472558
472814
473065
473326
473588
473851
474105
474358
474613
474881
475136
475389
475643
475904
476165
476423
476683
476937
477193
477456
477716
477968
478223
478481
478743
478876
479241
479497
479753
480015
480272
480528
480781
481045
481299
481560
481816
482075
482329
482595
482852
483108
483363
483522
483868
484130
484389
484643
484897
485160
485417
485671
485924
486181
486433
486690
486949
487203
487454
487717
487974
488236
488491
488753
489012
489280
489543
489807
490063
490332
490596
490854
491114
491372
491633
491895
492157
492296
492664
492932
493193
493446
493701
493961
494220
494483
494743
495000
495256
495524
495782
496038
496295
496555
496816
497078
497339
497594
497851
498119
498382
498640
498895
499153
499414
499678
499935
500191
500445
500712
500969
501228
501481
501743
502003
502264
502525
502780
503039
503307
503569
503825
504088
504353
504620
504888
505153
505420
505690
505963
506230
506494
506761
507029
507300
507573
507842
508106
508377
508649
508913
509173
509439
509704
509970
510237
510502
510763
511035
511302
511562
511822
512085
512346
512611
512868
513128
513382
513648
513907
514164
514418
514607
514935
515086
515456
515717
515972
516236
516493
516750
517003
517258
517511
517772
518030
518291
518548
518817
519080
519342
519608
519874
520137
520407
520670
520933
521195
521464
521726
521981
522242
522502
522765
523032
523294
523551
523818
524096
524239
524622
524887
525152
525416
525698
525842
526179
526348
526538
526641
526912
527155
527244
527498
527759
528000
528255
528494
528741
528973
529246
529532
529790
530071
530330
530545
530595
530894
531086
531390
531636
531852
531925
532183
532441
532703
532970
533239
533504
533768
534039
534173
534569
534829
535088
535353
535615
535882
536140
536399
536659
536930
537195
537452
537710
537971
538235
538498
538753
539007
539266
539533
539793
540049
540307
540571
540836
541106
541369
541632
541899
542173
542439
542697
542958
543219
543484
543752
544011
544266
544533
544804
545069
545323
545584
545850
546115
546387
546644
546902
547168
547435
547699
547956
548222
548482
548754
549022
549293
549552
549825
550100
550366
550637
550904
551171
551445
551715
551982
552249
552525
552798
553062
553331
553597
553865
554144
554409
554674
554945
555212
555475
555732
555995
556252
556514
556774
557034
557294
557562
557827
558089
558354
558624
558891
559162
559427
559694
559957
560232
560494
560753
561012
561276
561539
561806
562065
562323
562588
562859
563124
563380
563642
563905
564172
564439
564702
564960
565228
565495
565760
566020
566284
566550
566820
567089
567356
567618
567893
568161
568431
568697
568966
569229
569500
569763
570029
570288
570560
570826
571084
571348
571609
571879
572146
572408
572670
572937
573211
573471
573730
573992
574257
574523
574791
575055
575314
575584
575856
576125
576385
576653
576915
577186
577454
577716
577978
578245
578509
578770
579031
579294
579557
579823
580086
580351
580612
580883
581145
581405
581663
581928
582189
582454
582711
582972
583230
583500
583760
584015
584277
584542
584806
585073
585332
585593
585855
586127
586390
586648
586908
587173
587438
587708
587969
588230
588500
588774
589045
589306
589572
589836
590103
590369
590632
590888
591158
591419
591681
591941
592204
592469
592734
593000
593265
593532
593808
594075
594338
594510
594868
595136
595405
595664
595926
596191
596465
596730
596989
597255
597520
597794
598065
598330
598589
598860
599130
599392
599651
599913
600177
600445
600710
600974
601238
601514
601780
602045
602309
602581
602849
603122
603386
603649
603911
604182
604449
604708
604974
605236
605510
605654
606037
606298
606459
606824
607088
607346
607602
607858
608119
608305
608638
608896
609161
609428
609691
609946
610207
610465
610733
610998
611260
611515
611780
612047
612310
612569
612826
613087
613352
613617
613882
614137
614403
614668
614933
615193
615454
615711
615981
616126
616504
616761
617027
617287
617546
617803
618067
618329
618591
618857
619123
619389
619659
619925
620187
620451
620720
620985
621252
621512
621777
622043
622315
622581
622843
623111
623376
623649
623920
624187
624448
624720
624991
625258
625517
625781
626044
626311
626574
626837
627098
627371
627632
627894
628154
628420
628685
628952
629215
629477
629741
630012
630273
630531
630792
631055
631322
631589
631848
632108
632376
632646
632910
633166
633429
633691
633956
634222
634479
634738
635002
635270
635530
635785
636048
636311
636583
636848
637113
637375
637647
637911
638174
638432
638696
638956
639221
639481
639739
639998
640271
640539
640801
641065
641332
641606
641874
642143
642407
642675
642950
643215
643474
643735
643999
644271
644538
644803
645066
645341
645615
645882
646142
646409
646675
646944
647208
647470
647733
648006
648271
648533
648792
649059
649326
649595
649858
