32
322
839
1086
1591
1828
2346
2605
3117
3369
3863
4103
4647
4900
5418
5653
6168
6421
6949
7206
7708
7951
8449
8710
9225
9474
9960
10210
10700
10954
11463
11703
12210
12446
12949
13219
13349
13717
13973
14128
14257
14522
14754
14913
15036
15305
15519
15659
15802
16253
16494
16829
16965
17194
17538
17668
17821
17925
18075
18246
18838
19072
19590
19819
20094
20305
20521
20646
20962
21086
21177
21317
21440
21599
22134
22369
22510
22661
22886
23174
23502
23741
24189
24536
24866
25183
25495
25757
26163
26411
26820
27049
27467
27785
28036
28191
28724
28972
29102
29464
29845
30080
30574
30825
31268
31612
31941
32282
32635
32983
33338
33605
34003
34345
34707
35076
35419
35759
36105
36439
36792
37147
37500
37847
38183
38509
38867
39235
39576
39924
40264
40599
40950
41303
41655
41999
42332
42660
42985
43335
43685
44021
44354
44687
45009
45346
45687
46024
46289
46679
46918
47320
47598
47745
48020
48260
48682
48889
49344
49534
50039
50240
50737
50924
51396
51603
52104
52318
52798
53018
53484
53698
54173
54407
54881
55112
55572
55787
56279
56519
56986
57218
57677
57902
58383
58617
59100
59331
59791
60013
60503
60734
61228
61447
61921
62145
62613
62839
63334
63556
64043
64255
64744
64972
65469
65687
66169
66380
66873
67099
67603
67827
68312
68522
69008
69234
69743
69959
70444
70661
71142
71367
71877
72097
72592
72801
73282
73522
74023
74236
74737
74950
75442
75666
76183
76407
76897
77103
77595
77820
78341
78559
79057
79277
79759
79986
80502
80726
81225
81437
81921
82150
82655
82875
83367
83588
84076
84301
84820
85042
85528
85737
86229
86454
86672
87038
87270
87425
87555
88010
88236
88354
88488
88644
89135
89536
89769
90247
90463
90747
90881
90993
91221
91334
91427
91542
91775
91876
92000
92103
92211
92333
92414
92662
92764
93005
93114
93222
93321
93544
93679
93809
93925
94436
94702
95205
95567
95919
96157
96300
96901
97166
97242
97395
97517
97590
97745
97837
98078
98239
98491
98875
99073
99197
99302
99822
100004
100249
100399
100571
100670
100958
101422
101742
102146
102378
102782
103087
103386
103699
104009
104309
104599
104889
105178
105448
105742
106347
106630
106920
107198
107470
107748
108033
108297
108584
108857
109118
109387
109656
109915
110188
110470
110750
111018
111285
111542
111806
112066
112347
112624
112897
113159
113427
113695
113962
114216
114494
114775
115054
115329
115594
115852
116108
116373
116650
116924
117198
117464
117719
117974
118212
118448
118696
118940
119208
119453
119700
119946
120177
120426
120677
120928
121204
121463
121714
121977
122223
122491
122752
123026
123318
123604
123886
124160
124433
124704
124979
125264
125545
125828
126103
126376
126651
126916
127182
127463
127754
128035
128312
128581
128846
129108
129383
129674
129958
130231
130504
130785
131056
131313
131592
131879
132166
132449
132725
132992
133263
133534
133814
134103
134386
134665
134943
135220
135493
135764
136048
136344
136637
136920
137193
137467
137735
138015
138315
138610
138893
139181
139470
139750
140022
140313
140606
140909
141201
141487
141764
142044
142334
142636
142930
143223
143515
143805
144091
144373
144654
144962
145269
145562
145851
146139
146413
146708
147018
147318
147612
147910
148197
148482
148760
149058
149354
149652
149940
150223
150499
150775
151068
151365
151651
151940
152220
152500
152776
153048
153330
153632
153924
154203
154478
154754
155019
155303
155597
155887
156169
156454
156733
157009
157272
157551
157843
158135
158419
158699
158971
159246
159523
159813
160097
160381
160658
160933
161211
161479
161743
162031
162328
162607
162882
163153
163425
163693
163979
164264
164548
164830
165115
165386
165656
165915
166196
166486
166775
167054
167332
167601
167874
168146
168428
168710
168993
169265
169541
169814
170081
170339
170626
170923
171202
171482
171812
172011
172281
172548
172831
173112
173392
173673
173948
174218
174478
174756
175046
175333
175616
175897
176164
176440
176711
176994
177278
177565
177840
178120
178401
178673
178937
179228
179525
179810
180083
180358
180629
180905
181182
181469
181759
182041
182328
182604
182874
183138
183425
183715
184005
184289
184567
184838
185119
185388
185673
185963
186253
186533
186816
187096
187370
187641
187936
188229
188517
188794
189072
189348
189620
189906
190200
190488
190775
191067
191347
191620
191894
192183
192483
192780
193064
193339
193623
193901
194186
194482
194778
195065
195357
195642
195921
196194
196493
196794
197091
197374
197658
197940
198219
198513
198815
199113
199414
199706
199989
200269
200551
200848
201156
201452
201742
202029
202322
202598
202892
203193
203491
203788
204079
204360
204640
204923
205228
205533
205821
206112
206398
206684
206966
207262
207555
207854
208150
208435
208715
208994
209274
209579
209885
210176
210463
210754
211040
211324
211619
211920
212218
212513
212802
213087
213361
213661
213967
214269
214560
214856
215144
215432
215718
216020
216324
216632
216926
217212
217500
217783
218090
218407
218709
219006
219303
219600
219886
220184
220493
220799
221102
221400
221694
221976
222284
222598
222906
223206
223508
223802
224098
224394
224704
225020
225329
225629
225925
226218
226511
226831
227145
227452
227752
228051
228348
228640
228945
229261
229568
229873
230172
230464
230756
231076
231391
231694
231998
232293
232597
232892
233204
233521
233842
234145
234443
234736
235027
235341
235660
235967
236266
236569
236869
237159
237461
237780
238093
238403
238704
238998
239289
239605
239920
240231
240537
240836
241143
241437
241746
242067
242391
242702
243004
243303
243597
243913
244235
244553
244856
245167
245470
245763
246074
246396
246718
247035
247339
247637
247939
248255
248578
248895
249205
249515
249827
250123
250440
250771
251098
251415
251717
252024
252327
252652
252978
253294
253609
253931
254238
254540
254868
255193
255517
255831
256136
256448
256759
257084
257407
257723
258038
258354
258657
258973
259301
259633
259951
260256
260564
260863
261182
261514
261838
262154
262476
262786
263087
263409
263737
264066
264388
264698
265008
265324
265653
265982
266301
266619
266935
267244
267556
267881
268217
268537
268845
269158
269460
269783
270122
270448
270769
271094
271407
271711
272035
272367
272701
273022
273340
273656
273981
274321
274653
274983
275309
275631
275944
276266
276608
276949
277275
277594
277912
278230
278576
278914
279245
279589
279910
280226
280554
280903
281254
281583
281912
282253
282579
282928
283280
283622
283968
284301
284630
284970
285337
285682
286021
286360
286691
287033
287385
287731
288079
288415
288747
289074
289426
289786
290130
290469
290802
291137
291486
291834
292180
292521
292864
293193
293531
293902
294255
294597
294936
295270
295612
295963
296316
296667
297008
297342
297672
298027
298386
298736
299077
299412
299749
300095
300449
300795
301140
301484
301814
302156
302522
302874
303213
303548
303888
304226
304579
304930
305282
305626
305958
306288
306641
306999
307346
307683
308022
308356
308698
309056
309404
309755
310097
310428
310766
311131
311487
311826
312164
312503
312839
313194
313547
313906
314250
314579
314913
315261
315623
315970
316309
316653
316983
317326
317685
318033
318387
318724
319055
319395
319753
320105
320442
320780
321119
321453
321806
322160
322515
322855
323182
323511
323858
324220
324566
324904
325253
325586
325927
326287
326639
326992
327327
327660
328003
328360
328714
329059
329401
329742
330076
330427
330780
331135
331471
331804
332131
332479
332843
333189
333534
333882
334214
334556
334913
335267
335614
335949
336281
336622
336981
337330
337674
338017
338357
338689
339037
339398
339750
340090
340425
340755
341111
341477
341825
342176
342521
342856
343196
343556
343916
344265
344610
344947
345296
345661
346015
346368
346712
347056
347395
347751
348119
348467
348809
349150
349483
349777
350143
350497
350857
351203
351536
351885
352248
352612
352960
353300
353640
353993
354352
354702
355051
355394
355734
356069
356432
356800
357147
357491
357829
358171
358534
358893
359246
359597
359939
360269
360627
360995
361354
361704
362043
362390
362749
363105
363460
363811
364157
364492
364842
365217
365571
365920
366261
366597
366952
367310
367661
368014
368359
368693
369033
369394
369760
370109
370445
370788
371127
371479
371836
372181
372531
372871
373198
373561
373927
374275
374618
374955
375292
375644
376005
376359
376715
377058
377390
377739
378104
378465
378816
379155
379503
379844
380202
380562
380911
381263
381602
381943
382312
382669
383013
383354
383713
384051
384406
384768
385124
385478
385814
386149
386502
386866
387219
387561
387906
388243
388592
388957
389309
389663
390007
390341
390687
391055
391412
391754
392096
392438
392783
393146
393505
393867
394214
394550
394890
395252
395621
395971
396316
396670
397009
397369
397731
398088
398439
398782
399116
399479
399844
400193
400537
400878
401215
401567
401927
402288
402634
402969
403304
403649
404015
404370
404711
405062
405402
405740
406097
406455
406809
407146
407481
407819
408180
408539
408888
409233
409576
409912
410265
410625
410985
411330
411666
412001
412357
412729
413080
413431
413782
414116
414463
414823
415182
415533
415874
416213
416561
416926
417281
417630
417972
418316
418652
419006
419374
419721
420062
420405
420736
421104
421463
421809
422161
422501
422833
423181
423541
423898
424246
424585
424919
425277
425636
425985
426333
426673
427016
427355
427713
428081
428429
428771
429110
429452
429819
430176
430526
430877
431223
431556
431918
432285
432644
432994
433334
433682
434046
434405
434762
435111
435459
435793
436148
436523
436879
437227
437567
437901
438259
438619
438974
439325
439667
440005
440348
440714
441076
441425
441767
442109
442456
442812
443171
443521
443871
444213
444550
444918
445282
445634
445978
446319
446663
447025
447388
447743
448096
448442
448779
449140
449508
449864
450212
450554
450900
451255
451615
451971
452323
452672
453006
453360
453733
454089
454434
454775
455118
455466
455827
456183
456540
456886
457219
457561
457923
458285
458635
458973
459317
459659
460016
460374
460727
461080
461417
461749
462112
462473
462822
463163
463506
463844
464197
464561
464915
465270
465609
465942
466295
466662
467022
467371
467718
468065
468415
468779
469139
469497
469846
470188
470534
470907
471274
471620
471971
472320
472666
473030
473394
473755
474101
474441
474781
475141
475510
475857
476204
476555
476888
477248
477606
477961
478312
478651
478984
479348
479712
480062
480412
480756
481095
481453
481814
482180
482533
482871
483209
483565
483940
484298
484650
485007
485347
485696
486063
486426
486783
487128
487472
487827
488198
488557
488913
489264
489611
489956
490319
490691
491046
491390
491733
492078
492452
492810
493160
493514
493851
494188
494547
494908
495266
495609
495949
496292
496654
497014
497369
497714
498062
498398
498748
499120
499479
499827
500173
500509
500873
501241
501594
501951
502300
502636
502985
503352
503715
504068
504415
504759
505113
505479
505840
506196
506549
506897
507243
507621
507992
508348
508701
509043
509400
509773
510135
510495
510851
511196
511538
511907
512274
512627
512975
513317
513667
514028
514388
514740
515090
515435
515774
516144
516510
516863
517210
517552
517898
518257
518623
518981
519333
519679
520016
520377
520747
521105
521456
521799
522144
522499
522865
523224
523581
523930
524266
524631
525001
525357
525712
526055
526401
526758
527126
527490
527850
528196
528534
528895
529266
529626
529976
530319
530666
531010
531372
531736
532090
532437
532778
533125
533494
533857
534206
534552
534902
535245
535611
535980
536339
536689
537030
537370
537738
538106
538461
538809
539163
539502
539865
540231
540590
540947
541289
541630
541998
542366
542719
543071
543427
543768
544133
544502
544865
545218
545563
545905
546265
546645
547003
547357
547720
548062
548424
548801
549163
549521
549864
550213
550544
550932
551290
551670
551924
552385
552625
553123
553372
553871
554112
554577
554836
555102
555352
555468
555820
555930
556036
556265
556633
556913
557122
557358
557923
558258
558464
558576
558784
558902
559007
559101
559239
559339
559568
559678
559825
559999
560323
560729
560937
561133
561223
561423
561868
562710
563239
563430
564137
564612
565121
565218
565383
565495
565797
566017
566115
566539
566828
566913
567013
567408
567592
568216
568393
568596
568707
568898
569200
569567
570150
570568
570723
570947
571117
571499
571691
571970
572189
572475
573020
573336
573710
573894
574337
574613
574673
575204
575312
575434
575576
576057
576556
576740
577149
577921
578273
578479
578887
579053
579178
579393
579678
579978
580187
580537
580848
581167
581448
581546
581870
582172
583236
583604
583821
584121
584416
585059
585322
585809
586011
586561
586864
587261
587591
587822
588217
588808
589058
589422
589543
590610
591430
592293
592862
593298
593708
594148
594562
594978
595370
595782
596191
596610
597022
597413
597807
598221
598657
599063
599460
599851
600259
600682
601073
601463
601847
602225
602611
602989
603367
603724
604066
604427
604780
605129
605477
605807
606146
606469
606808
607150
607481
607797
608112
608416
608695
609084
609386
609698
610012
610316
610607
610926
611239
611564
611889
612183
612482
613037
613443
613776
614311
614738
615039
615387
615735
616078
616420
616748
617067
617407
617785
618124
618476
618828
619186
619543
619915
620293
620677
621025
621390
621769
622152
622525
622895
623256
623602
623949
624334
624702
625051
625395
625726
626075
626426
626764
627094
627426
627728
628047
628381
628702
629039
629360
629621
629936
630160
630475
630709
630915
631195
631423
631614
631796
631964
632134
632295
632467
632644
632826
633003
633178
633352
633526
633695
633865
634033
634208
634380
634563
634747
634934
635119
635299
635481
635670
635852
636027
636195
636365
636531
636713
636900
637090
637271
637458
637632
637815
637993
638168
638344
638517
638677
638854
639035
639232
639419
639596
639767
639950
640125
640313
640480
640652
640816
640990
641172
641370
641551
641733
641911
642090
642260
642437
642609
642790
642963
643140
643313
643500
643683
643865
644047
644229
644407
644584
644752
644926
645097
645276
645450
645636
645822
646014
646196
646380
646547
646727
646910
647095
647258
647435
647619
647811
647993
648169
648358
648549
648732
648902
649084
649265
649432
649604
649801
