212
481
697
859
1179
1391
1593
1858
2078
2259
2556
2761
2940
3199
3431
3615
3883
4098
4280
4563
4768
4960
5194
5416
5575
5897
6124
6320
6577
6772
6942
7167
7347
7546
7747
7948
8144
8316
8528
8724
8920
9087
9292
9469
9647
9825
10032
10228
10419
10600
10787
10971
11153
11335
11524
11695
11885
12058
12272
12469
12678
12891
13097
13294
13484
13668
13849
14044
14246
14446
14633
14843
15034
15236
15429
15626
15829
16031
16239
16443
16675
16897
17105
17310
17514
17718
17914
18108
18304
18518
18726
18927
19105
19331
19536
19725
19916
20103
20287
20461
20719
20929
21111
21357
21558
21739
21947
22146
22337
22501
22736
22942
23152
23381
23588
23799
24000
24203
24412
24579
24853
25071
25249
25511
25713
25878
26119
26319
26518
26721
26914
27143
27395
27630
27862
28028
28312
28526
28695
28961
29171
29367
29576
29778
29982
30188
30398
30615
30779
31061
31259
31452
31700
31911
32080
32314
32514
32720
32924
33128
33315
33520
33735
33956
34141
34403
34608
34777
35019
35221
35389
35630
35839
36040
36244
36449
36646
36829
37042
37237
37428
37608
37807
38038
38221
38532
38734
38907
39184
39379
39563
39788
40005
40200
40508
40737
40910
41233
41436
41603
41902
42107
42295
42567
42785
42952
43242
43460
43635
43906
44099
44268
44536
44754
44936
45224
45433
45608
45853
46064
46215
46488
46700
46877
47145
47345
47514
47767
47969
48137
48371
48575
48761
49018
49237
49418
49653
49862
50059
50320
50528
50673
51005
51225
51404
51706
51919
52095
52329
52539
52686
52975
53202
53382
53634
53833
54008
54257
54461
54647
54862
55081
55285
55567
55805
55960
56264
56471
56640
56930
57129
57313
57552
57769
57944
58228
58448
58617
58875
59073
59225
59502
59712
59889
60147
60349
60523
60761
60970
61170
61403
61617
61797
62095
62318
62486
62747
62951
63119
63362
63560
63762
63978
64189
64400
64580
64852
65053
65213
65447
65631
65824
66016
66214
66416
66603
66790
66974
67166
67348
67558
67745
67928
68131
68340
68552
68724
68977
69190
69354
69615
69812
69960
70228
70441
70613
70880
71084
71247
71507
71712
71876
72124
72318
72490
72752
72967
73136
73375
73576
73749
73990
74193
74801
74990
76399
76588
76791
76963
77238
77450
77609
77867
78071
78233
78462
78644
78837
79040
79260
79488
79644
79929
80129
80287
80523
80720
80911
81105
81308
81507
81684
81892
82076
82272
82448
82645
82827
83002
83179
83397
83604
83802
84000
84192
84394
84559
84812
85010
85170
85399
85603
85808
86014
86223
86433
86604
86882
87084
87230
87486
87692
87875
88105
88306
88502
88711
88927
89142
89364
89563
89725
89993
90209
90380
90629
90832
91011
91221
91423
91628
91842
92052
92276
92464
92720
92933
93092
93345
93541
93700
93922
94128
94332
94535
94731
94930
95106
95355
95555
95717
95948
96150
96347
96570
96786
97000
97176
97461
97662
97815
98101
98313
98483
98746
98952
99114
99352
99558
99747
99962
100161
100342
100566
100785
100998
101246
101451
101608
101868
102077
102240
102485
102686
102871
103090
103290
103494
103667
103930
104130
104290
104529
104738
104950
105163
105372
105593
105748
106045
106256
106410
106659
106853
107020
107259
107471
107682
107894
108111
108322
108487
108762
108965
109137
109437
109651
109822
110063
110274
110449
110676
110877
111057
111307
111528
111698
111975
112182
112347
112597
112803
112984
113199
113399
113606
113843
114055
114268
114491
114704
114906
115114
115311
115526
115745
115974
116196
116409
116624
116841
117062
117280
117447
117691
117907
118121
118347
118551
118749
118951
119153
119350
119513
119768
119982
120148
120407
120610
120807
121006
121194
121380
121549
121752
121941
122134
122327
122543
122738
122933
123113
123332
123533
123728
123919
124098
124296
124484
124694
124898
125097
125265
125486
125675
125860
126051
126236
126424
126624
126814
127005
127199
127374
127569
127751
127938
128114
128300
128489
128694
128884
129109
129308
129492
129682
129870
130053
130244
130425
130609
130797
130981
131175
131367
131563
131739
131936
132108
132287
132465
132628
132806
133002
133176
133363
133560
133752
133963
134156
134343
134527
134707
134887
135080
135281
135482
135713
135928
136120
136343
136547
136759
136990
137201
137414
137675
137905
138072
138384
138847
139046
139240
139424
139703
139919
140123
140339
140551
140752
140927
141197
141630
141841
142058
142241
142503
142916
143115
143314
143494
143739
143962
144187
144364
144649
144871
145043
145320
145519
145674
145942
146155
146368
146558
146823
147033
147237
147454
147674
147888
148066
148370
148599
148768
149046
149263
149426
149674
149867
150072
150309
150528
150756
150948
151271
151482
151735
151957
152164
152355
152665
152901
153092
153360
153567
153732
154013
154214
154391
154703
154933
155119
155395
155617
155795
156060
156261
156410
156692
156922
157105
157410
157625
157789
158078
158295
158455
158734
158950
159131
159444
159672
159849
160137
160353
160513
160801
161029
161216
161505
161722
161895
162165
162378
162543
162830
163046
163224
163532
163759
163940
164205
164415
164581
164848
165046
165224
165462
165672
165882
166101
166334
166565
166757
167058
167263
167450
167801
168028
168218
168516
168736
168914
169219
169420
169607
169926
170151
170351
170657
170874
171055
171346
171561
171738
172042
172269
172450
172752
172973
173162
173459
173658
173853
174137
174367
174549
174819
175041
175206
175502
175717
175887
176196
176414
176607
176893
177110
177288
177564
177775
177936
178248
178480
178664
178973
179181
179362
179640
179855
180021
180305
180529
180713
181046
181266
181436
181753
181965
182136
182470
182686
182876
183212
183422
183599
183912
184121
184286
184574
184799
184993
185305
185515
185691
185978
186192
186355
186641
186861
187039
187362
187599
187758
188046
188254
188417
188683
188891
189071
189393
189619
189778
190096
190318
190482
190769
190972
191144
191417
191644
191819
192100
192319
192485
192792
193006
193164
193468
193692
193864
194152
194374
194555
194842
195048
195217
195505
195733
195903
196171
196377
196555
196779
196978
197169
197356
197537
197743
197934
198255
198473
198648
198956
199163
199328
199589
199804
199984
200288
200508
200688
201006
201218
201374
201681
201888
202063
202357
202583
202762
203023
203236
203406
203690
203893
204065
204358
204587
204764
205035
205259
205424
205698
205907
206074
206384
206609
206790
207075
207295
207465
207735
207945
208117
208370
208587
208768
209062
209283
209451
209752
209962
210143
210405
210625
210799
211083
211307
211493
211770
211984
212152
212420
212625
212798
213095
213321
213503
213769
213987
214165
214447
214660
214814
215100
215326
215516
215780
215990
216155
216413
216620
216795
217067
217288
217467
217747
217962
218130
218407
218616
218782
219036
219248
219435
219716
219937
220099
220362
220572
220733
221000
221201
221368
221633
221844
222024
222279
222487
222666
222922
223128
223295
223564
223786
223959
224222
224424
224671
224956
225164
225318
225615
225833
226007
226242
226441
226633
226823
227010
227191
227375
227564
227742
227937
228134
228345
228563
228772
228958
229225
229428
229598
229837
230049
230240
230492
230704
230911
231116
231326
231539
231715
231976
232186
232389
232604
232818
233024
233222
233423
233627
233802
234045
234253
234447
234707
234931
235109
235398
235618
235784
236033
236233
236401
236643
236867
237090
237342
237567
237731
238040
238256
238417
238689
238910
239093
239354
239569
239749
240011
240222
240381
240644
240868
241047
241319
241531
241709
241952
242162
242330
242593
242791
242963
243250
243484
243663
243928
244135
244302
244574
244783
244946
245229
245453
245628
245897
246117
246290
246556
246754
246927
247178
247387
247565
247829
248041
248214
248463
248674
248848
249101
249295
249463
249722
249939
250124
250419
250640
250807
251061
251267
251426
251689
251907
252082
252369
252584
252759
253045
253259
253421
253676
253898
254089
254376
254603
254773
255045
255255
255424
255694
255900
256077
256369
256596
256787
257079
257300
257476
257734
257938
258115
258427
258657
258850
259125
259345
259529
259788
259996
260150
260443
260667
260851
261138
261350
261527
261798
262011
262180
262454
262674
262852
263144
263356
263538
263816
264026
264197
264477
264707
264891
265212
265426
265608
265881
266087
266257
266544
266770
266930
267255
267492
267660
267946
268155
268326
268607
268817
268992
269288
269515
269683
269971
270197
270369
270655
270859
271031
271321
271554
271730
272027
272248
272416
272714
272932
273102
273393
273623
273799
274090
274312
274495
274770
274981
275147
275415
275636
275811
276093
276309
276483
276781
276997
277173
277432
277648
277821
278115
278342
278517
278803
279014
279185
279450
279666
279836
280145
280366
280546
280852
281065
281239
281498
281699
281863
282146
282374
282555
282857
283069
283247
283540
283751
283905
284180
284405
284583
284858
285079
285246
285517
285728
285892
286174
286399
286578
286849
287066
287229
287500
287717
287875
288161
288373
288562
288877
289101
289268
289529
289738
289898
290168
290378
290552
290848
291072
291254
291533
291751
291908
292172
292379
292538
292814
293035
293212
293485
293694
293863
294150
294359
294528
294795
295014
295189
295467
295687
295853
296129
296334
296506
296779
296993
297173
297449
297668
297836
298116
298331
298507
298786
298989
299165
299462
299689
299863
300128
300339
300511
300786
300994
301161
301422
301635
301823
302079
302292
302467
302753
302967
303140
303406
303624
303805
304086
304300
304474
304776
304987
305162
305412
305623
305799
306106
306343
306522
306819
307031
307212
307490
307697
307868
308159
308388
308565
308858
309085
309253
309525
309728
309901
310205
310435
310610
310896
311118
311289
311568
311784
311937
312210
312433
312621
312907
313121
313290
313545
313754
313921
314167
314396
314607
314860
315079
315269
315589
315819
315970
316269
316481
316667
316908
317117
317312
317504
317698
317902
318112
318313
318513
318735
318910
319200
319418
319598
319820
320015
320202
320381
320626
320846
321059
321267
321474
321682
321865
322080
322277
322469
322658
322862
323080
323319
323502
323807
324027
324193
324462
324669
324846
325087
325297
325512
325704
325994
326211
326385
326637
326843
327013
327277
327500
327727
327959
328172
328389
328568
328840
329051
329200
329482
329706
329885
330171
330389
330592
330806
331025
331256
331501
331743
331984
332212
332494
332723
332915
333216
333431
333602
333891
334121
334320
334585
334804
334979
335196
335524
335731
335968
336196
336438
336642
336939
337162
337399
337624
337836
338042
338357
338588
338773
339087
339318
339553
339770
339972
340155
340449
340698
340863
341207
341421
341682
341905
342122
342311
342566
342789
342992
343224
343436
343644
343831
344057
344261
344476
344730
344971
345204
345400
345714
345933
346106
346424
346632
346806
347087
347320
347498
347797
348020
348199
348508
348717
348919
349234
349458
349653
349968
350187
350429
350658
350872
351131
351385
351628
351893
352131
352366
352626
352858
353021
353358
353586
353800
354054
354278
354496
354678
354968
355188
355389
355740
355963
356234
356464
356694
356925
357154
357357
357658
357916
358084
358415
358630
358814
359067
359278
359452
359745
359982
360181
360479
360705
360928
361155
361376
361624
361862
362101
362366
362608
362827
363078
363310
363532
363742
363945
364162
364381
364619
364858
365066
365358
365586
365772
365954
366095
366321
366556
366746
366961
367077
367313
367545
367735
368028
368240
368438
368754
368987
369209
369430
369649
369838
370143
370352
370548
370832
371072
371304
371531
371749
371971
372223
372442
372674
372943
373190
373418
373684
373935
374155
374405
374619
374847
375092
375334
375572
375809
376046
376263
376545
376765
376959
377130
377282
377515
377743
377925
378169
378299
378510
378727
378902
379193
379436
379629
379906
380117
380320
380521
380725
380934
381138
381389
381633
381824
382172
382392
382624
382847
383067
383283
383541
383783
384016
384282
384535
384758
385042
385261
385451
385656
385777
385987
386240
386417
386789
387018
387258
387480
387695
387935
388192
388426
388721
388967
389153
389331
389470
389699
389940
390188
390433
390671
390950
391195
391424
391704
391935
392129
392317
392465
392730
392970
393218
393452
393678
393942
394173
394406
394657
394905
395144
395425
395658
395878
396135
396359
396597
396863
397108
397333
397599
397841
398063
398309
398536
398773
399029
399267
399501
399732
399964
400186
400456
400684
400920
401197
401443
401662
401838
402174
402386
402607
402820
403066
403321
403565
403790
404070
404308
404472
404665
404804
405070
405291
405614
405861
406110
406347
406565
406801
407024
407255
407541
407786
408014
408275
408518
408738
408973
409192
409422
409669
409914
410157
410395
410618
410842
411085
411298
411522
411743
411981
412217
412466
412702
412926
413167
413386
413607
413858
414095
414324
414557
414789
415011
415267
415500
415711
415967
416206
416447
416676
416907
417130
417374
417597
417817
418082
418318
418550
418797
419027
419258
419497
419714
419921
420177
420422
420658
420897
421128
421351
421614
421847
422065
422280
422505
422726
422942
423160
423368
423566
423761
423947
424133
424318
424508
424697
424883
425068
425248
425426
425596
425773
425942
426110
426273
426431
426594
426766
426947
427128
427299
427470
427629
427802
427974
428141
428313
428491
428675
428865
429068
429273
429481
429683
429893
430020
430240
430426
430615
430792
430991
431193
431402
431606
431805
431996
432189
432384
432568
432753
432931
433119
433330
433526
433725
433920
434104
434289
434475
434662
434854
435039
435220
435418
435622
435822
436023
436220
436424
436628
436829
437041
437225
437429
437642
437854
438074
438696
438892
439093
439294
439480
439683
439891
440120
440332
440522
440726
440916
441105
441297
441483
441673
441883
442097
442328
442539
442758
442971
443174
443377
443576
443774
443970
444196
444409
444621
444818
445020
445212
445415
445615
445804
445990
446184
446385
446587
446781
446981
447183
447382
447574
447764
447959
448165
448361
448652
448858
449082
449294
449503
449735
449959
450162
450383
450609
450850
451084
451302
451520
451758
451985
452191
452426
452646
452872
453098
453323
453542
453766
453964
454138
454386
454585
454779
454996
455212
455433
455660
455869
456091
456266
456457
456698
456897
457094
457298
457494
458435
458622
458794
458985
459177
459383
459597
459821
460068
460286
460503
460722
460920
461109
461325
461550
461770
461998
462213
462427
462638
462840
463038
463247
463468
463690
463966
464211
464419
464679
464882
465085
465281
465483
465692
465906
466105
466301
466487
466685
466889
467088
467281
467466
467678
467908
468132
468350
468572
468792
469010
469223
469433
469623
469823
470022
470226
470437
470639
470839
471036
471235
471437
471643
471882
472126
472338
472530
472848
473061
473260
473460
473661
473867
474140
474360
474650
474894
475062
475339
475543
475755
475954
476157
476408
476624
476843
477058
477284
477481
477633
477927
478126
478311
478506
478703
478900
479098
479287
479478
479691
479926
480135
480400
480605
480823
481033
481245
481472
481702
481902
482181
482388
482600
482810
483025
483250
483479
483683
483943
484157
484336
484542
484795
484991
485227
485458
485674
485910
486110
486315
486532
486743
486929
487207
487440
487658
487871
488073
488268
488460
488639
488821
488998
489168
489353
489543
489740
489938
490144
490344
490556
490754
490947
491137
491316
491514
491722
491934
492144
492355
492539
492792
493002
493202
493432
493645
493853
494133
494376
494610
494826
495041
495250
495456
495645
495858
496099
496328
496627
496843
497102
497326
497539
497715
498006
499911
500145
500398
500628
500851
501067
501289
501509
501720
501922
502129
502363
502594
502814
503041
503262
503480
503761
503990
504195
504423
504650
504879
505114
505339
505565
505830
506055
506255
506435
506717
506945
507159
507366
507575
507750
507985
508186
508381
508582
508785
508991
509199
509416
509625
509821
510021
510224
510424
510617
510846
511067
511296
511555
511789
512016
512211
512455
512657
512865
513080
513309
513548
513771
513987
514190
514405
514624
514822
515017
515224
515425
515711
515932
516201
516425
516639
516855
517069
517285
517495
517703
517914
518127
518341
518573
518767
519035
519238
519439
519651
519871
520091
520316
520535
520743
520961
521177
521411
521620
521843
522074
522310
522529
522786
523003
523209
523387
523613
523808
524025
524258
524493
524722
524928
525137
525348
525549
525739
525930
526141
526347
526553
526765
526983
527186
527461
527681
527841
528120
528340
528558
528767
528969
529174
529383
529600
529794
530037
530239
530442
530688
530908
531078
531315
531522
531717
531924
532155
532358
532600
532841
533065
533342
533570
533782
533974
534220
534419
534617
534822
535019
535213
535402
535598
535810
536040
536279
536481
536755
536975
537238
537476
537691
537894
538091
538290
538494
538705
538911
539148
539366
539585
539798
540014
540226
540440
540642
540842
541040
541248
541463
541642
541900
542108
542293
542514
542718
542911
543121
543322
543524
543771
543990
544179
544448
544665
544828
545109
545312
545517
545728
545934
546113
546377
546583
546754
546992
547182
547372
547561
547762
547971
548172
548382
548577
548782
548991
549194
549393
549577
549778
549995
550208
550420
550639
550829
551014
551191
551383
551589
551788
552000
552173
552447
552658
552852
553054
553256
553461
553680
553870
554092
554306
554591
554810
555049
555254
555460
555665
555879
556090
556360
556582
556800
557024
557253
557474
557683
557881
558071
558256
558477
558699
558920
559127
559327
559536
559752
559981
560199
560405
560622
560861
561101
561341
561552
561779
562008
562238
562456
562674
562906
563142
563409
563641
563871
564123
564341
564557
564802
565049
565280
565533
565774
565999
566247
566479
566699
566936
567161
567397
567666
567894
568120
568370
568601
568814
569056
569304
569531
569802
570052
570284
570552
570779
570998
571246
571477
571716
571984
572223
572442
572691
572936
573150
573430
573670
573933
574181
574412
574663
574902
575116
575364
575592
575821
576086
576321
576555
576824
577054
577276
577457
577769
577995
578255
578490
578716
578966
579192
579412
579681
579915
580124
580445
580698
580943
581122
581321
581453
581697
581918
582176
582436
582666
582973
583211
583391
583717
583928
584190
584424
584667
584930
585182
585401
585678
585916
586112
586458
586667
586967
587210
587368
587715
587932
588175
588391
588612
588845
589099
589321
589635
589864
590130
590373
590562
590747
590876
591124
591368
591651
591890
592069
592262
592408
592652
592865
593149
593408
593567
593921
594147
594397
594615
594832
595045
595269
595511
595777
596010
596233
596491
596735
596953
597198
597432
597668
597933
598168
598400
598637
598880
599092
599343
599571
599796
600008
600229
600454
600681
600900
601122
601339
601553
601787
602081
602330
602491
602827
603045
603326
603549
603732
604042
604266
604555
604796
604960
605280
605492
605742
605966
606204
606411
606736
606947
607230
607473
607664
608011
608266
608524
608796
608964
609147
609299
609574
609791
610106
610335
610628
610876
611066
611427
611644
611846
612154
612364
612614
612853
613086
613350
613581
613775
613966
614105
614342
614553
614837
615088
615402
615641
615824
616179
616387
616699
616941
617194
617462
617689
617965
618197
618379
618573
618691
618919
619161
619471
619722
619881
620231
620444
620729
620950
621106
621460
621681
621961
622197
622411
622610
622897
623104
623378
623615
623808
624010
624354
624579
624732
625050
625253
625486
625730
625970
626215
626452
626673
626954
627182
627369
627693
627912
628203
628455
628627
628938
629152
629392
629600
629836
630082
630368
630601
630783
631122
631329
631627
631850
632047
632374
632601
632869
633089
633306
633495
633793
633998
634257
634493
634739
634938
635251
635470
635714
635939
636157
636360
636698
636920
637175
637412
637633
637830
638130
638337
638635
638880
639127
639365
639594
639845
640076
640293
640488
640832
641061
641324
641559
641747
641938
642067
642277
642491
642728
642995
643236
643472
643727
643966
644193
644451
644677
644898
645149
645384
645613
645830
646064
646291
646536
646760
646990
647283
647530
647701
648031
648239
648518
648749
648904
649203
649436
649701
649936
