204
478
682
849
1177
1370
1574
1855
2055
2238
2559
2741
2924
3192
3406
3600
3880
4083
4259
4564
4754
4938
5192
5401
5562
5892
6098
6303
6575
6788
6917
7125
7353
7548
7745
7947
8310
8528
8723
9081
9291
9468
9817
10032
10228
10431
10593
10788
10965
11320
11508
11738
12049
12537
12852
13098
13281
13503
13667
13843
14029
14224
14394
14615
15033
15227
15633
15822
16034
16241
16415
16678
16900
17079
17291
17561
17698
17868
18071
18489
18710
18929
19142
19714
20285
20449
20927
21101
21358
21565
21725
22049
22334
22491
22733
22946
23124
23378
23589
23779
23997
24202
24395
24561
24852
25056
25228
25510
25713
25871
26116
26322
26498
26717
26912
27114
27393
27628
27839
28008
28311
28503
28668
28962
29156
29340
29574
29776
29981
30184
30394
30595
30758
31242
31434
31698
31910
32074
32311
32518
32705
32923
33127
33313
33518
33732
33943
34120
34403
34605
34769
35018
35381
35628
35841
36023
36242
36446
36641
36809
37042
37237
37426
37602
37801
38028
38201
38533
38717
38889
39369
39546
39786
40003
40180
40507
40715
40895
41237
41413
41586
41905
42086
42279
42566
42771
42937
43242
43437
43617
43916
44088
44257
44534
44743
44918
45418
45594
45852
46056
46207
46486
46692
46862
47146
47342
47507
47764
48127
48370
48750
49018
49410
49649
50041
50322
50516
50670
51006
51201
51388
51899
52077
52330
52531
52677
53188
53367
53997
54631
55268
55568
55793
55943
56450
56623
57117
57293
57768
57929
58436
58600
59064
59213
59503
59709
59878
60148
60513
61154
61615
61779
62095
62316
62478
62748
63112
63562
63747
64388
64558
64856
65050
65213
65445
65633
65811
66011
66199
66585
66790
66966
67166
67328
67516
68132
68344
68546
68716
68979
69189
69341
69618
69810
69958
70229
70439
70600
70883
71078
71239
71511
71707
71862
72314
72480
72964
73126
74959
75606
76790
76961
77447
77599
78068
78227
79267
79464
79632
80119
80278
80524
80897
81505
81671
82276
82432
83163
83398
84393
84550
84812
85163
85400
86430
86587
86887
87069
87221
87487
87689
87860
88106
88486
88704
89121
89556
89712
89995
90205
90371
90630
90999
91221
91630
91843
92057
92262
92442
92722
92920
93081
93351
93539
93690
93922
94130
94317
94535
94923
95092
95356
95555
95712
95948
96158
96331
96571
96987
97159
97463
97648
97808
98106
98299
98473
98746
98950
99108
99351
99732
99960
100329
100976
101450
101605
102075
102234
102486
102672
102859
103089
103293
103492
103657
103930
104131
104284
104529
104740
104931
105162
105371
105581
105735
106046
106239
106397
106659
106852
107010
107259
107471
107679
107892
108113
108304
108471
108948
109120
109439
109639
109810
110062
110439
110672
111043
111309
111526
111689
111976
112181
112338
112598
112972
113198
113584
113842
114060
114251
114489
114885
115116
115319
115513
115746
115976
116178
116626
116842
117063
117281
117438
117692
117908
118099
118348
118551
119344
119503
119768
119979
120143
120407
120615
120796
121005
121539
121752
121941
122323
122538
122732
122941
123096
123330
123542
123707
123913
124241
124500
124687
124897
125086
125262
125674
126037
126219
127358
127568
127750
128103
128669
128870
129194
129481
129784
129889
130239
130425
130691
130973
131211
131341
131674
132124
132249
132499
132840
133255
133472
133744
133987
134082
134334
134528
134701
134964
135280
135453
135774
136073
136337
136549
136729
136984
137383
137671
137901
138055
138557
138845
139238
139408
139703
139920
140103
140340
140748
140913
141355
141631
141838
142057
142226
142670
142912
143112
143472
143735
143959
144178
144343
144644
144860
145023
145318
145519
145663
145942
146151
146367
146541
146821
147035
147214
147450
147672
147873
148046
148367
148585
148750
149043
149257
149415
149671
149869
150046
150306
150525
150737
150923
151454
151733
151957
152153
152332
152662
152877
153072
153357
153560
153720
154010
154204
154371
154700
154908
155097
155394
155608
155780
156058
156262
156404
156690
156922
157087
157409
157619
157774
158076
158285
158442
158731
158941
159111
159442
159655
159828
160135
160340
160494
160799
161013
161192
161503
161712
161879
162163
162373
162529
162828
163031
163199
163530
163744
163922
164203
164406
164568
164846
165045
165208
165460
165670
165880
166099
166332
166535
166734
167059
167240
167424
167799
168004
168194
168514
168713
168895
169218
169399
169582
169924
170124
170326
170655
170850
171032
171343
171536
171717
172039
172244
172426
172750
172948
173135
173461
173638
173829
174135
174353
174532
174816
175025
175187
175499
175694
175865
176194
176393
176583
176891
177096
177269
177562
177753
177922
178246
178450
178639
178972
179161
179342
179638
179838
180001
180303
180504
180689
181045
181242
181419
181751
181938
182116
182468
182664
182850
183210
183400
183580
183911
184100
184269
184572
184774
184969
185304
185496
185671
185976
186171
186334
186640
186836
187014
187361
187569
187740
188045
188238
188397
188682
188875
189049
189392
189595
189761
190094
190295
190463
190769
190954
191125
191415
191629
191802
192098
192305
192465
192791
192986
193142
193466
193671
193842
194150
194354
194530
194840
195030
195199
195503
195711
195883
196169
196368
196538
196777
196979
197159
197535
197744
197916
198254
198451
198626
198955
199143
199310
199588
199789
199963
200287
200486
200662
201005
201194
201356
201680
201864
202038
202355
202571
202743
203021
203221
203386
203689
203881
204043
204356
204566
204743
205033
205243
205404
205696
205893
206051
206382
206585
206768
207073
207275
207442
207733
207932
208100
208369
208574
208752
209059
209267
209428
209751
209943
210123
210402
210609
210778
211081
211290
211470
211769
211971
212136
212419
212610
212776
213093
213304
213482
213768
213972
214145
214446
214643
214794
215098
215309
215495
215778
215983
216145
216410
216615
216779
217065
217276
217448
217746
217949
218113
218405
218603
218765
219035
219237
219417
219714
219927
220087
220360
220565
220720
220999
221193
221355
221632
221843
222011
222277
222488
222653
222920
223121
223286
223563
223771
223944
224218
224422
224670
224958
225144
225302
225615
225812
225989
226242
226441
226633
226821
227009
227189
227373
227564
227741
227936
228133
228344
228561
228765
228942
229224
229427
229587
229835
230046
230223
230491
230704
230893
231114
231324
231527
231695
231975
232173
232369
232601
232815
233022
233220
233421
233627
233787
234044
234259
234429
234705
234928
235091
235396
235607
235768
236031
236232
236384
236641
236865
237062
237340
237553
237711
238037
238234
238399
238687
238895
239071
239352
239564
239735
240009
240211
240366
240641
240853
241025
241317
241523
241692
241950
242163
242319
242591
242784
242946
243249
243468
243645
243927
244121
244285
244572
244768
244926
245228
245439
245612
245895
246101
246274
246554
246744
246913
247177
247379
247554
247827
248042
248202
248461
248675
248838
249100
249295
249451
249720
249938
250106
250418
250621
250787
251060
251258
251415
251686
251906
252068
252368
252572
252735
253043
253238
253404
253674
253882
254066
254375
254588
254754
255045
255243
255408
255693
255889
256057
256368
256583
256765
257078
257278
257457
257732
257924
258093
258425
258633
258824
259124
259333
259511
259787
259989
260137
260441
260655
260831
261137
261344
261511
261797
262002
262168
262452
262666
262835
263142
263348
263521
263815
264018
264181
264474
264683
264869
265210
265406
265587
265879
266079
266247
266542
266748
266912
267253
267465
267642
267944
268141
268309
268605
268804
268972
269285
269500
269664
269968
270181
270349
270654
270848
271009
271319
271538
271710
272024
272231
272393
272712
272913
273080
273390
273601
273778
274088
274297
274469
274768
274967
275135
275412
275628
275799
276091
276299
276463
276779
276976
277154
277430
277633
277803
278112
278326
278494
278801
278996
279168
279449
279650
279815
280143
280345
280524
280851
281046
281222
281497
281684
281849
282144
282360
282534
282856
283048
283226
283539
283731
283887
284178
284390
284565
284857
285067
285231
285516
285711
285872
286172
286383
286558
286848
287057
287218
287498
287706
287862
288160
288352
288535
288875
289078
289251
289527
289728
289886
290166
290365
290533
290847
291050
291233
291531
291734
291891
292170
292366
292521
292812
293027
293201
293484
293683
293847
294148
294343
294509
294794
295002
295172
295465
295675
295839
296128
296321
296486
296778
296979
297154
297447
297652
297822
298114
298317
298489
298786
298971
299143
299460
299674
299845
300126
300327
300496
300785
300983
301147
301421
301634
301806
302076
302291
302454
302752
302952
303122
303404
303613
303791
304084
304293
304456
304775
304974
305145
305410
305614
305785
306104
306323
306500
306818
307010
307191
307488
307681
307852
308156
308372
308543
308857
309070
309236
309523
309718
309883
310202
310418
310590
310894
311105
311270
311566
311770
311921
312208
312422
312603
312906
313113
313278
313542
313755
313910
314165
314395
314582
314855
315255
315792
315953
316278
316469
316648
316909
317118
317314
317504
317695
317899
318110
318310
318510
318725
318885
319198
319417
319577
319819
320013
320369
320529
320848
321053
321259
321473
321681
321845
322078
322276
322639
322861
323080
323307
323480
323762
323992
324188
324600
324837
324951
325507
325688
325810
326208
326375
326635
327004
327275
327498
327701
327955
328171
328379
328551
328837
329047
329190
329705
329871
330170
330571
330802
331020
331225
331500
331739
331954
332183
332498
332696
332889
333216
333407
333580
333885
334112
334297
334585
334802
334962
335169
335530
335706
335961
336192
336410
336612
336936
337136
337398
337622
337815
338017
338355
338561
338751
339082
339288
339551
339964
340138
340443
340672
340841
341201
341402
341683
341907
342113
342291
342564
342971
343221
343435
343641
343812
344055
344260
344475
344730
344970
345180
345375
345715
345907
346086
346424
346611
346789
347083
347312
347484
347797
347995
348172
348507
348694
348890
349232
349434
349626
349966
350163
350428
350657
350847
351129
351384
351599
351890
352130
352338
352625
352834
353000
353356
353559
353775
354052
354277
354477
354661
354966
355159
355366
355739
355938
356232
356462
356678
356924
357153
357337
357657
357891
358063
358413
358608
358794
359069
359272
359439
359745
359955
360155
360477
360682
360925
361154
361348
361620
361859
362069
362468
362801
363076
363308
363506
363740
363944
364154
364358
364618
364858
365045
365357
365586
365753
365927
366093
366320
366555
366726
366929
367074
367312
367528
367713
368026
368216
368412
368752
368962
369207
369428
369637
369817
370141
370331
370524
370830
371050
371282
371529
371748
371948
372222
372440
372649
372942
373188
373390
373682
373933
374128
374404
374618
374819
375090
375333
375547
375807
376045
376241
376544
376764
376941
377105
377282
377513
377743
377906
378136
378306
378509
378718
378892
379191
379417
379604
379905
380102
380299
380520
380723
380925
381114
381387
381615
381797
382171
382366
382623
382846
383043
383256
383540
383781
383986
384280
384533
384734
385041
385263
385430
385617
385776
385985
386230
386397
386788
386992
387256
387478
387677
387933
388190
388395
388720
388966
389134
389304
389470
389698
389914
390186
390432
390642
390949
391194
391395
391703
391934
392109
392288
392465
392728
392946
393217
393450
393650
393941
394172
394378
394655
394903
395114
395424
395656
395851
396134
396358
396570
396862
397107
397306
397598
397840
398033
398308
398534
398742
399027
399266
399477
399730
399962
400157
400455
400683
400890
401195
401443
401637
401817
402172
402362
402605
402818
403036
403319
403564
403762
404068
404296
404455
404640
404803
405068
405265
405612
405836
406109
406345
406543
406799
407022
407224
407540
407784
407986
408273
408516
408713
408971
409191
409398
409667
409913
410129
410395
410616
410815
411083
411296
411503
411741
411980
412192
412465
412700
412899
413166
413385
413580
413856
414093
414301
414555
414788
414984
415266
415500
415683
415966
416205
416421
416675
416905
417103
417373
417596
417788
418080
418316
418524
418795
419026
419229
419497
419713
419902
420175
420420
420631
420893
421129
421323
421607
422036
422277
422503
422714
422939
423160
423362
423567
423767
423952
424129
424377
424516
424689
424975
425190
425593
425941
426111
426272
426798
426941
427220
427580
427803
428134
428490
428662
429064
429258
429480
429675
429978
430412
430614
431389
431607
431802
431980
432186
432380
432580
432751
433109
433326
433521
433746
433919
434104
434290
434454
434659
434854
435038
435218
435416
435621
435822
436014
436219
436481
436691
437017
437216
437423
437643
437851
438062
438290
438481
438695
438891
439089
439294
439681
439862
440120
440334
440505
440718
440916
441100
441296
441508
441680
441868
442197
442371
442510
442694
442971
443170
443378
443759
443957
444196
444403
444618
444811
445013
445192
445613
445803
446039
446228
446440
446688
446980
447380
447672
447743
447969
448166
448348
448607
448839
449109
449497
450143
450461
450594
450820
451310
451504
451895
452163
452423
452644
452850
453102
453335
453520
453809
454109
454387
454647
454777
454958
455427
455640
455890
456139
456234
456434
456701
456884
457085
457295
457520
457692
457860
458065
458170
458214
458395
458652
458984
459166
459460
459595
459796
460281
460501
460921
461105
461332
461560
461763
462038
462240
462414
462649
463039
463517
463699
464162
464418
464597
464833
465078
465378
465690
465902
466104
466486
466641
466818
467088
467253
467554
467687
467944
468130
468318
468786
469017
469229
469429
469595
470019
470242
470476
470697
471058
471465
471628
472086
472320
472511
472952
473144
473302
473859
474052
474342
474643
474893
475036
475531
475746
476138
476573
477301
477473
477617
477934
478112
478278
478528
478897
479234
479477
479695
479843
479925
480123
480583
481041
481238
481469
481888
482371
482595
482823
483018
483247
483671
483860
484329
484523
484796
484974
485288
485650
486113
486299
486543
486920
487413
487687
488066
488449
488775
489349
489740
489941
490333
490808
492526
492851
493184
493436
493682
493838
494138
494350
494609
495034
495636
495908
496301
496827
497177
497527
497712
498194
498446
498855
499080
499288
499486
499726
499890
500115
500393
500830
501487
502112
502363
502594
502802
503458
503977
504182
504849
505539
505830
506243
506409
506717
506917
507157
507365
507741
508067
508186
508377
508577
508786
508994
509181
509499
509814
510218
510422
510605
510843
511062
511273
511549
511790
512004
512193
512454
512646
513094
513293
513972
514609
515224
515409
515712
515919
516195
516622
517267
517495
517703
517912
518115
518555
518746
519039
519223
519438
519648
519865
520090
520316
520518
520960
521154
521407
521618
521819
522073
522309
522517
522783
523005
523194
523375
523805
524260
524469
524722
524929
525129
525738
525931
526139
526543
526759
526983
527176
527669
527835
528325
528577
528768
528969
529159
529474
529778
530036
530230
530420
531075
531312
531525
531714
531919
532155
532343
532597
532835
533046
533336
533761
533955
534407
534617
534821
535208
535401
535598
535801
536464
536957
537235
537476
537680
537894
538094
538286
538880
539083
539367
539571
539855
539997
540215
540441
540638
540833
541039
541463
541634
541897
542103
542275
542568
542888
543324
543504
543769
544167
544445
544662
544817
545108
545302
545516
545726
545933
546107
546376
546580
546750
546992
547185
547358
547557
547761
547966
548155
548384
548783
548990
549194
549461
549782
549982
550215
550378
550795
551073
551388
551790
552001
552162
552494
552657
552850
553203
553450
553570
553748
554056
554291
554622
554783
555083
555452
555768
556074
556379
556581
556792
557016
557456
557688
557885
558067
558233
558472
558700
558910
559114
559429
559751
560384
560877
561077
561345
561757
562244
562437
563114
563844
564126
564533
565055
565255
565974
566675
566941
567368
567674
568096
568791
569504
570256
570972
571249
571687
572418
573127
573430
573647
574187
574386
575092
575792
576090
576527
577060
577251
577433
577965
578497
578692
578969
579387
579913
580103
580289
580447
580704
580941
581106
581294
581455
581894
582641
582975
583188
583367
583905
584191
584427
584641
585374
585890
586085
586648
587202
587352
587905
588176
588396
588587
589300
589840
590372
590544
590715
590879
591339
591654
591889
592053
592235
592410
592837
593389
593545
593927
594119
594619
594811
595486
596208
596746
596929
597638
597931
598167
598376
598635
598882
599071
599347
599573
599787
600010
600230
600441
600685
600906
601111
601759
602323
602475
603024
603329
603538
603711
604238
604557
604779
604945
605467
605752
605970
606176
606385
606922
607448
607639
608012
608270
608529
608778
608942
609119
609301
609768
610108
610307
610849
611042
611432
611625
611821
612339
612859
613060
613754
613938
614108
614526
615059
615405
615615
615800
616365
616701
616920
617198
617467
617662
617968
618196
618362
618537
618693
619132
619700
619860
620424
620731
620943
621096
621658
621963
622385
622585
623082
623381
623615
623793
623984
624553
624710
625231
625488
625734
625945
626648
626956
627161
627343
627891
628205
628430
628606
629126
629395
629819
630053
630373
630580
630758
631311
631628
631827
632018
632576
632870
633095
633284
633470
633973
634264
634497
634712
634913
635255
635445
635946
636129
636332
636896
637176
637417
637607
637806
638315
638637
638856
639370
639568
639847
640084
640272
640464
640841
641032
641555
641728
641910
642070
642473
642703
642998
643448
643972
644165
644872
645152
645394
645590
646071
646262
646963
647284
647508
647678
648220
648520
648732
648887
649407
649704
