188
425
657
889
1114
1335
1554
1774
2001
2237
2476
2707
2936
3165
3391
3621
3844
4061
4293
4531
4768
5009
5243
5483
5704
5931
6146
6376
6623
6865
7109
7344
7573
7805
8040
8261
8496
8729
8969
9203
9432
9667
9908
10139
10377
10600
10845
11103
11354
11597
11833
12070
12305
12529
12761
13010
13249
13491
13722
13956
14182
14417
14638
14850
15077
15317
15553
15783
16021
16248
16474
16691
16913
17148
17384
17621
17851
18074
18304
18525
18748
18977
19149
19408
19642
19875
20111
20336
20560
20782
20997
21214
21436
21671
21914
22156
22390
22617
22842
23065
23292
23505
23731
23960
24172
24420
24643
24874
25097
25316
25499
25738
25970
26209
26441
26669
26893
27120
27340
27555
27762
27986
28219
28454
28680
28905
29134
29360
29578
29786
30001
30226
30458
30691
30925
31158
31386
31612
31836
32062
32303
32549
32788
33032
33264
33495
33721
33924
34173
34391
34624
34856
35099
35334
35561
35784
36005
36169
36410
36645
36879
37119
37343
37574
37795
38021
38245
38464
38679
38898
39130
39367
39586
39815
40040
40261
40479
40685
40910
41144
41379
41611
41833
42059
42279
42455
42709
42932
43173
43420
43646
43890
44123
44357
44583
44806
45016
45242
45471
45703
45938
46167
46390
46609
46828
47052
47268
47498
47739
47970
48200
48429
48656
48886
49113
49326
49555
49784
50019
50259
50488
50718
50938
51164
51386
51600
51837
52083
52320
52555
52782
53192
53471
53637
53872
54095
54323
54547
54787
54984
55213
55439
55665
55879
56107
56344
56581
56750
56985
57214
57437
57653
57865
58090
58320
58553
58785
59014
59237
59470
59695
59902
60122
60346
60583
60821
61066
61291
61517
61741
61965
62195
62425
62665
62910
63152
63387
63626
63863
64095
64328
64551
64763
65018
65258
65504
65727
65957
66173
66398
66614
66841
67080
67325
67554
67781
68010
68242
68471
68691
68909
69139
69370
69556
69818
70047
70278
70498
70712
70920
71148
71394
71636
71877
72106
72340
72570
72793
73023
73247
73477
73719
73950
74182
74415
74642
74871
75089
75299
75532
75769
76008
76251
76483
76716
76938
77166
77393
77612
77848
78079
78314
78547
78771
78992
79216
79427
79635
79849
80076
80307
80529
80744
80962
81177
81390
81602
81810
82037
82267
82489
82720
82928
83150
83371
83584
83793
83994
84215
84442
84662
84885
85112
85342
85546
85748
85978
86182
86414
86644
86875
87093
87310
87531
87744
87963
88180
88394
88619
88837
89072
89299
89523
89738
89956
90161
90368
90560
90806
91106
91304
91660
91868
92074
92280
92632
92900
93082
93286
93519
93702
93914
94118
94326
94526
94717
94917
95088
95332
95550
95753
95958
96122
96345
96541
96733
96925
97127
97339
97544
97753
97950
98148
98350
98553
98747
98942
99123
99326
99533
99737
99942
100144
100370
100540
100738
100927
101118
101306
101511
101712
101917
102115
102310
102500
102695
102886
103079
103270
103455
103651
103844
104050
104256
104459
104659
104854
105046
105233
105427
105613
105808
106013
106217
106426
106620
106816
107007
107202
107341
107547
107738
107942
108143
108342
108539
108741
108934
109131
109322
109515
109703
109883
110022
110231
110446
110657
110853
111046
111237
111429
111619
111808
111991
112188
112390
112543
112749
112954
113150
113349
113546
113737
113930
114112
114299
114496
114702
114901
115110
115307
115507
115694
115901
116091
116283
116485
116693
116903
117109
117318
117519
117723
117924
118091
118322
118515
118720
118929
119140
119353
119565
119770
119976
120170
120365
120572
120747
120970
121178
121392
121598
121797
121993
122189
122335
122569
122806
122980
123165
123321
123572
123780
123975
124129
124367
124562
124757
124945
125090
125309
125515
125723
125931
126078
126282
126599
126865
127263
127469
127678
127829
128103
128688
128790
128978
129229
129556
129824
130015
130243
130425
130589
130822
131014
131176
131354
131592
131814
131994
132198
132400
132604
132800
132956
133218
133569
133757
133968
134173
134381
134580
134789
134992
135187
135432
135744
135990
136312
136576
136763
136964
137176
137362
137558
137765
137901
138121
138354
138887
139073
139357
139686
140123
140465
140652
140880
141072
141257
141430
141644
141839
142010
142182
142375
142611
142820
143025
143234
143430
143640
143836
144021
144227
144417
144616
144826
145035
145246
145456
145659
145861
146063
146262
146466
146668
146882
147105
147320
147538
147755
147967
148123
148383
148603
148805
149021
149240
149465
149694
149907
150123
150286
150530
150743
150941
151162
151389
151620
151775
151904
152033
152164
152307
152440
152574
152706
152838
152970
153099
153230
153368
153510
153660
153803
153940
154076
154205
154427
154645
154856
155062
155249
155470
155698
155857
155981
156202
156423
156641
156856
157075
157294
157516
157744
157983
158223
158460
158697
158925
159128
159368
159583
159816
160055
160293
160532
160759
160979
161207
161433
161656
161882
162121
162348
162595
162829
163066
163301
163533
163757
163982
164218
164461
164714
164952
165186
165417
165643
165870
166095
166332
166577
166820
167049
167278
167519
167708
167980
168197
168438
168679
168916
169159
169391
169619
169851
170076
170295
170533
170785
171029
171261
171490
171725
171949
172176
172407
172626
172864
173099
173337
173577
173813
173986
174250
174485
174698
174931
175172
175409
175644
175874
176102
176286
176550
176777
177001
177226
177466
177704
177918
178159
178390
178621
178846
179064
179302
179548
179793
180032
180260
180486
180706
180900
181142
181366
181595
181832
182056
182283
182518
182688
182826
183032
183300
183547
183783
184014
184252
184482
184708
184929
185144
185365
185554
185811
186052
186284
186513
186716
186971
187205
187432
187658
187835
188120
188343
188594
188831
189059
189285
189510
189728
189949
190179
190427
190667
190892
191118
191345
191573
191806
192029
192266
192504
192745
192986
193218
193449
193685
193915
194128
194358
194607
194851
195086
195317
195547
195757
195992
196218
196443
196680
196916
197151
197379
197609
197843
198071
198288
198505
198740
198958
199214
199462
199702
199934
200088
200213
200353
200494
200709
200877
201016
201166
201300
201449
201568
201724
201862
202116
202266
202421
202524
202675
202801
202945
203068
203221
203472
203634
203798
204198
204314
204456
204582
204725
204840
204966
205105
205233
205377
205521
205661
205796
205940
206072
206204
206336
206483
206589
206739
206864
206998
207120
207256
207393
207539
207680
207814
207954
208087
208226
208358
208499
208633
208762
208897
209031
209162
209279
209422
209564
209708
209848
209992
210185
210400
210613
210832
211041
211264
211482
211724
211968
212216
212466
212709
212952
213190
213415
213631
213802
214088
214329
214571
214792
215024
215238
215458
215674
215963
216112
216243
216389
216522
216666
216828
216945
217072
217218
217607
217767
217897
218036
218167
218308
218457
218588
218733
218867
218995
219248
219407
219573
219647
219806
219934
220054
220192
220327
220464
220616
220735
220923
221013
221154
221287
221419
221546
221679
221813
221945
222073
222193
222322
222582
222741
222886
223012
223151
223288
223534
223745
223945
224137
224326
224525
224744
224978
225220
225456
225700
225956
226204
226449
226695
226947
227197
227444
227686
227924
228152
228373
228598
228817
229047
229286
229460
229741
229967
230188
230406
230628
230844
231068
231300
231527
231754
231984
232201
232424
232607
232859
233074
233295
233528
233742
233996
234214
234432
234650
234817
235065
235287
235522
235765
236003
236223
236450
236674
236890
237115
237327
237549
237782
238010
238085
238250
238493
238686
238928
239110
239347
239568
239766
240040
240246
240491
240715
240944
241164
241388
241597
241807
242051
242253
242490
242702
242925
243143
243354
243571
243775
243992
244220
244450
244686
244910
245129
245348
245571
245794
246000
246234
246443
246689
246921
247136
247366
247590
247802
248020
248233
248459
248697
248930
249163
249383
249591
249823
250032
250250
250472
250704
250934
251158
251383
251611
251835
252054
252271
252485
252699
252941
253171
253406
253633
253859
254081
254293
254511
254689
254953
255189
255411
255632
255831
256076
256296
256516
256721
256892
257149
257390
257633
257862
258085
258312
258522
258734
258961
259181
259414
259656
259881
260112
260337
260560
260783
261007
261228
261455
261696
261933
262157
262390
262621
262842
263045
263279
263517
263758
263997
264161
264306
264504
264678
264812
264950
265088
265207
265346
265475
265623
265764
265909
266061
266180
266330
266465
266623
266739
266912
267014
267166
267287
267416
267566
267670
267832
267963
268095
268229
268381
268507
268640
268789
268915
269296
269458
269732
269978
270178
270385
270589
270796
270995
271209
271366
271537
271942
272183
272377
272651
272890
273112
273331
273515
273775
273986
274354
274655
274874
275097
275309
275518
275935
276562
276768
276996
277190
277411
277618
278033
278250
278398
278566
278648
278863
279090
279224
279479
279692
279904
280112
280273
280499
280732
280962
281202
281440
281673
281913
282119
282366
282592
282812
283044
283276
283510
283747
283973
284200
284417
284643
284862
285017
285231
285404
285551
285695
285837
285971
286116
286252
286398
286531
286666
286800
286929
287053
287185
287320
287461
287601
287743
287898
288037
288168
288312
288435
288561
288691
288900
289141
289353
289573
289797
290002
290216
290428
290648
290873
291045
291309
291537
291753
292003
292225
292468
292691
292917
293117
293348
293571
293808
294048
294229
294495
294732
294960
295172
295393
295610
295839
296067
296295
296528
296756
296980
297204
297426
297648
297859
298090
298329
298569
298810
299035
299263
299484
299711
299937
300165
300401
300638
300877
301111
301341
301572
301781
302027
302249
302489
302736
302982
303217
303463
303652
303889
304149
304377
304613
304853
305085
305320
305528
305754
305999
306213
306424
306656
306883
307114
307345
307593
308002
308256
308668
308917
309166
309365
309595
309811
310035
310253
310404
310614
310771
310906
311042
311185
311325
311459
311593
311739
311880
312018
312176
312563
312754
313004
313225
313454
313676
313897
314103
314313
314518
314727
314940
315142
315362
315656
316013
316250
316470
316688
316905
317100
317318
317535
317765
317987
318225
318449
318667
318886
319088
319349
319538
319766
320006
320159
320435
320663
320883
321064
321312
321524
321737
321960
322194
322421
322650
322872
323086
323308
323521
323736
323948
324184
324419
324638
324859
325056
325290
325513
325674
325930
326133
326359
326577
326797
327018
327230
327439
327642
327852
328058
328269
328496
328729
328959
329182
329403
329620
329855
330072
330288
330524
330707
330986
331223
331454
331682
331909
332131
332347
332568
332749
333033
333265
333492
333714
333935
334156
334372
334586
334800
335044
335273
335502
335726
335957
336179
336404
336623
336841
337078
337315
337554
337786
338013
338238
338451
338625
338869
339103
339338
339572
339801
340025
340248
340472
340694
340916
341124
341352
341585
341823
342062
342290
342504
342740
342963
343184
343414
343600
343896
344141
344377
344608
344845
345085
345308
345540
345779
346021
346257
346459
346703
346933
347156
347386
347532
347804
348062
348306
348490
348745
348977
349214
349435
349642
349889
350130
350375
350612
350850
351097
351292
351553
351778
352006
352248
352489
352734
352978
353210
353440
353673
353892
354118
354352
354591
354820
355049
355275
355494
355685
355934
356150
356383
356619
356866
357113
357344
357582
357811
358043
358270
358498
358757
359012
359257
359463
359724
359967
360209
360432
360610
360881
361130
361369
361599
361833
362065
362286
362506
362722
362957
363200
363435
363668
363893
364118
364346
364574
364794
365030
365270
365512
365754
365996
366236
366468
366689
366883
367132
367369
367610
367846
368046
368301
368526
368752
368982
369188
369431
369667
369906
370135
370367
370600
370816
371024
371249
371468
371695
371933
372178
372400
372619
372843
373060
373284
373499
373731
373969
374188
374460
374620
375125
375294
375532
375719
375949
376196
376446
376630
376865
377088
377313
377531
377744
377967
378205
378460
378667
378905
379131
379354
379580
379782
380015
380251
380474
380659
380933
381235
381404
381632
381838
382053
382292
382525
382755
382982
383218
383432
383637
383861
384089
384290
384526
384747
384979
385209
385426
385657
385902
386034
386290
386506
386733
386972
387212
387441
387674
387891
388109
388332
388549
388773
389016
389251
389488
389711
389941
390165
390383
390603
390809
391034
391267
391497
391729
391960
392179
392384
392615
392848
393072
393325
393561
393789
394011
394248
394471
394577
394909
395126
395326
395577
395804
396037
396259
396420
396674
396894
397108
397321
397546
397784
398017
398241
398467
398685
398906
399125
399337
399563
399787
400023
400258
400483
400715
400944
401169
401391
401605
401839
402082
402320
402553
402777
402954
403215
403437
403655
403857
404114
404351
404586
404815
405017
405278
405502
405723
405940
406169
406403
406626
406867
407076
407314
407532
407751
407968
408196
408427
408662
408894
409118
409351
409579
409805
410032
410235
410483
410715
410953
411195
411419
411647
411873
412093
412308
412536
412779
413020
413253
413483
413711
413972
414103
414367
414594
414821
415056
415290
415517
415747
415974
416194
416359
416610
416840
417078
417312
417549
417769
417997
418222
418440
418664
418885
419118
419354
419595
419832
420066
420298
420525
420747
420959
421191
421427
421670
421908
422135
422365
422584
422806
422973
423230
423466
423698
423936
424170
424393
424627
424841
425080
425294
425491
425700
425968
426225
426449
426694
426899
427123
427345
427567
427787
428040
428272
428505
428702
428962
429202
429414
429640
429858
430085
430320
430554
430781
431013
431234
431456
431675
431888
432130
432364
432603
432771
433031
433262
433485
433712
433933
434159
434398
434626
434866
435099
435325
435553
435758
435988
436210
436442
436654
436919
437152
437386
437612
437835
438064
438285
438517
438751
438973
439223
439450
439688
439914
440143
440364
440564
440778
441097
441272
441493
441843
442179
442624
442854
443035
443305
443544
443766
444003
444225
444455
444665
444871
445091
445350
445576
445799
446034
446235
446486
446690
446890
447138
447334
447590
447799
448017
448280
448502
448674
448929
449140
449375
449607
449837
450073
450300
450524
450740
450953
451163
451381
451618
451847
452082
452312
452531
452756
452954
453196
453410
453592
453862
454080
454321
454547
454770
454996
455220
455436
455646
455880
456112
456352
456588
456801
457027
457253
457482
457687
457920
458153
458385
458618
458846
459080
459304
459523
459739
459945
460180
460413
460626
460872
461030
461258
461480
461697
461915
462133
462352
462580
462813
463040
463270
463491
463718
463945
464153
464389
464611
464865
465061
465329
465567
465790
466013
466237
466456
466688
466928
467149
467392
467614
467842
468064
468289
468508
468738
468979
469222
469452
469626
469907
470133
470360
470580
470802
471042
471276
471516
471742
471967
472196
472417
472645
472871
473097
473344
473579
473820
474059
474256
474510
474733
474952
475188
475414
475660
475907
476134
476365
476587
476816
477045
477267
477492
477726
477961
478193
478417
478615
478868
479094
479314
479484
479758
480007
480248
480473
480705
480927
481159
481356
481586
481825
482054
482272
482520
482745
482972
483198
483421
483638
483864
484103
484345
484583
484815
485055
485287
485513
485720
485959
486199
486445
486683
486909
487141
487364
487589
487821
488047
488279
488520
488762
489004
489236
489470
489694
489917
490134
490367
490610
490852
491087
491321
491548
491754
492012
492234
492466
492706
492946
493185
493411
493649
493882
494101
494326
494543
494777
495024
495265
495497
495723
495949
496180
496401
496618
496857
497096
497329
497559
497788
498023
498246
498465
498680
498897
499131
499366
499605
499838
500063
500290
500511
500731
500951
501183
501419
501650
501883
502111
502292
502550
502775
502992
503211
503387
503649
503895
504130
504360
504588
504814
505033
505248
505487
505724
505965
506203
506378
506634
506873
507106
507324
507500
507746
507997
508234
508410
508664
508908
509132
509349
509572
509806
510050
510290
510528
510748
510976
511201
511429
511641
511875
512107
512348
512580
512811
513038
513264
513488
513706
513918
514156
514393
514634
514876
515102
515334
515557
515785
516001
516234
516475
516706
516947
517179
517405
517634
517858
518075
518299
518528
518769
519013
519250
519487
519714
519938
520172
520387
520603
520868
521106
521340
521562
521793
522022
522247
522464
522684
522919
523160
523393
523564
523859
524081
524307
524523
524738
524976
525215
525453
525682
525905
526133
526353
526577
526793
526993
527248
527484
527716
527946
528186
528412
528629
528850
529067
529296
529540
529773
530007
530234
530458
530685
530885
531122
531351
531584
531817
532058
532282
532518
532734
532970
533186
533406
533642
533886
534127
534360
534578
534811
535017
535250
535464
535690
535929
536163
536395
536608
536845
537072
537296
537521
537730
537964
538195
538441
538667
538898
539120
539346
539568
539786
540028
540268
540508
540743
540938
541197
541425
541660
541877
542034
542312
542555
542801
543028
543252
543490
543715
543941
544150
544380
544607
544865
545096
545324
545552
545719
545985
546235
546444
546680
546923
547161
547400
547634
547867
548103
548317
548535
548773
549031
549263
549502
549688
549953
550178
550413
550562
550782
550953
551102
551265
551533
551811
552089
552443
552663
552878
553112
553344
553576
553809
554032
554268
554470
554693
554915
555144
555327
555610
555847
556068
556316
556547
556779
556999
557177
557445
557690
557930
558161
558395
558614
558843
559050
559276
559517
559761
560000
560176
560444
560673
560895
561097
561332
561564
561798
562032
562278
562519
562741
562986
563219
563443
563666
563927
564169
564393
564623
564851
565090
565266
565532
565759
565989
566161
566419
566641
566895
567128
567351
567586
567786
568020
568240
568498
568738
568970
569200
569428
569650
569877
570102
570335
570563
570804
571045
571271
571502
571737
571963
572173
572402
572637
572867
573114
573342
573567
573791
574017
574238
574455
574695
574884
575159
575393
575601
575864
576096
576318
576530
576742
576933
577204
577452
577664
577805
578076
578284
578501
578703
579060
579371
579632
579854
580077
580267
580484
580718
580918
581114
581367
581592
581825
582091
582517
582745
582946
583090
583307
583581
583791
584022
584239
584466
584674
584898
585106
585308
585543
585760
585961
586204
586451
586655
586863
587114
587299
587545
587797
587936
588231
588466
588704
588892
589112
589378
589642
589826
590236
590376
590449
591092
591345
591563
591763
591986
592213
592438
592705
592894
593106
593325
593479
593749
593953
594196
594420
594662
594884
595107
595326
595533
595757
595952
596165
596380
596603
596828
597041
597255
597458
597661
597870
598066
598282
598484
598689
598909
599152
599557
599763
599974
600202
600394
600489
600642
600789
601057
601251
601456
601678
601919
602122
602334
602538
602761
602994
603220
603425
603634
603859
604086
604668
604891
605151
605351
605596
605817
605985
606240
606462
606656
606882
607131
607342
607747
607988
608249
608448
608663
608866
609087
609312
609530
609709
609962
610179
610402
610624
610847
611058
611299
611694
611965
612167
612408
612628
612819
613048
613230
613453
613684
613904
614126
614354
614497
614757
614965
615215
615380
615618
615847
616075
616306
616530
616760
616980
617138
617348
617508
617638
617798
618012
618162
618511
618668
618872
619023
619182
619334
619461
619612
619888
620055
620193
620403
620697
620928
621150
621357
621520
621775
621990
622163
622425
622666
622898
623120
623325
623577
623784
624004
624247
624488
624715
624963
625201
625435
625659
625890
626118
626350
626590
626822
627036
627305
627566
627803
628044
628265
628491
628745
628932
629089
629213
629461
629706
629941
630176
630405
630635
630875
631120
631361
631616
631783
631989
632152
632295
632433
632578
632720
633043
633247
633491
633729
633962
634190
634420
634618
634865
635107
635341
635593
635838
636069
636301
636515
636751
636988
637212
637447
637687
637925
638159
638392
638623
638856
639089
639310
639497
639780
640020
640257
640499
640733
640969
641193
641421
641671
641921
642173
642413
642615
642878
643108
643341
643571
643816
644047
644291
644481
644729
644963
645198
645359
645606
645840
646076
646321
646568
646800
647037
647266
647444
647722
647952
648195
648434
648674
648916
649154
649387
649624
649857
