52
247
472
623
866
1082
1295
1587
1816
2028
2246
2506
2749
2986
3245
3462
3673
3851
4152
4374
4593
4824
5126
5361
5629
5826
6091
6363
6531
6742
6946
7186
7417
7616
7848
8114
8402
8670
8876
9105
9419
9677
9900
10248
10498
10750
10963
11072
11427
11670
11922
12165
12377
12498
12789
13015
13199
13450
13721
13980
14196
14450
14668
14952
15182
15412
15642
15873
16123
16351
16603
16847
16989
17259
17520
17785
18053
18255
18513
18743
18982
19095
19357
19555
19765
20033
20273
20511
20688
21046
21245
21444
21636
21838
22082
22357
22619
22876
23182
23440
23688
23941
24193
24428
24699
24965
25191
25389
25526
25844
26103
26308
26512
26778
27111
27365
27578
27824
28098
28330
28618
28885
29135
29415
29660
29909
30204
30449
30682
30952
31148
31422
31634
31918
32151
32335
32549
32804
33078
33336
33603
33869
34129
34376
34606
34798
35072
35232
35363
35693
35915
36169
36420
36645
36889
37118
37329
37608
37876
38131
38367
38600
38850
39065
39341
39559
39832
40110
40327
40536
40777
41045
41300
41566
41816
42050
42292
42489
42679
42916
43119
43345
43549
43801
44132
44370
44615
44744
45055
45211
45522
45677
45979
46236
46428
46665
46855
47110
47355
47573
47825
48098
48296
48524
48836
49088
49318
49517
49675
49997
50286
50559
50809
51057
51322
51519
51811
52083
52365
52611
52918
53163
53413
53664
53963
54241
54552
54779
54995
55233
55541
55795
56059
56308
56598
56872
57126
57368
57599
57857
58090
58359
58572
58838
59068
59399
59607
59881
60115
60360
60567
60764
61016
61265
61557
61783
62016
62252
62472
62707
62978
63209
63476
63718
63945
64211
64468
64769
64990
65238
65520
65805
66038
66300
66627
66825
67080
67335
67569
67838
68124
68360
68572
68822
69062
69305
69529
69745
70014
70291
70531
70790
71026
71281
71505
71727
71943
72061
72224
72566
72790
73014
73221
73461
73708
73988
74251
74595
74829
75070
75278
75485
75665
75953
76227
76450
76689
76899
77157
77349
77542
77796
78037
78278
78521
78766
78987
79165
79476
79718
79958
80212
80466
80579
80903
81188
81387
81643
81874
82097
82398
82691
82919
83143
83389
83621
83819
83947
84141
84393
84567
84654
84783
85114
85572
85820
86074
86313
86535
86745
87128
87402
87679
87990
88122
88390
88632
88853
89070
89315
89595
89895
90159
90364
90585
90855
91119
91358
91584
91835
92137
92404
92556
92811
93009
93260
93390
93667
93914
94182
94471
94706
95049
95281
95575
95841
96094
96400
96620
96785
97093
97338
97573
97832
98076
98383
98568
98784
99069
99315
99567
99830
100032
100268
100557
100734
100975
101237
101455
101655
101903
102141
102381
102644
102919
103164
103439
103652
103885
104136
104422
104724
104957
105185
105424
105702
105949
106157
106380
106527
106823
107087
107314
107524
107732
107979
108200
108309
108656
108834
109058
109302
109543
109764
110002
110256
110508
110765
110992
111261
111536
111762
111997
112266
112487
112703
112951
113174
113372
113609
113921
114179
114391
114589
114764
115064
115328
115564
115799
115923
116223
116465
116696
116906
117163
117507
117762
117989
118304
118543
118787
119014
119265
119497
119664
119981
120181
120410
120750
121054
121305
121558
121832
122081
122362
122591
122834
123068
123289
123509
123818
124048
124291
124529
124821
125094
125309
125574
125825
126118
126397
126637
126885
127158
127406
127638
127876
128132
128419
128617
128868
129010
129309
129528
129754
130013
130274
130550
130823
131144
131498
131755
132011
132270
132535
132805
133045
133335
133630
133888
134088
134380
134640
134896
135169
135399
135642
135851
136093
136332
136664
136903
137191
137435
137679
137929
138152
138405
138662
138930
139290
139526
139778
140029
140247
140545
140828
141104
141357
141650
141918
142191
142384
142612
142863
143104
143390
143666
143936
144199
144446
144671
144915
145127
145414
145706
145936
146193
146403
146621
146835
147034
147244
147572
147831
148101
148334
148548
148781
149015
149232
149556
149827
150047
150313
150573
150817
151029
151245
151457
151624
151749
152059
152198
152344
152604
152739
153059
153293
153498
153755
154044
154311
154553
154774
155023
155394
155638
155913
156160
156445
156698
156933
157174
157401
157608
157821
158037
158311
158546
158954
159208
159475
159732
159933
160178
160433
160725
160976
161211
161473
161706
161933
162162
162436
162700
162843
163124
163358
163593
163850
163973
164220
164442
164742
165012
165284
165491
165692
165929
166187
166466
166682
166877
167125
167377
167626
167894
168198
168444
168684
168952
169217
169448
169712
170056
170230
170484
170595
170853
171116
171379
171590
171829
172097
172357
172569
172814
173044
173292
173593
173846
174188
174588
174843
175106
175373
175602
175908
176167
176405
176609
176714
176964
177143
177398
177703
177983
178234
178492
178746
178933
179272
179504
179633
179935
180191
180451
180680
180965
181212
181440
181641
181865
182159
182453
182744
182984
183193
183431
183680
183948
184221
184449
184717
184966
185126
185456
185629
185887
186182
186467
186726
186970
187198
187400
187645
187889
188128
188382
188673
188913
189193
189455
189674
189967
190208
190428
190675
190938
191205
191487
191761
192033
192273
192501
192779
193064
193297
193547
193762
193980
194088
194427
194638
194932
195170
195396
195661
195917
196141
196332
196590
196845
197101
197375
197601
197824
198082
198290
198432
198735
198952
199203
199442
199709
199939
200204
200445
200690
200921
201289
201522
201793
202041
202483
202699
202925
203174
203395
203666
203944
204183
204396
204622
204874
205137
205355
205579
205801
206064
206313
206569
206784
207029
207232
207470
207789
208061
208321
208598
208874
209119
209337
209587
209843
210171
210418
210676
210948
211204
211438
211780
212030
212251
212502
212797
213154
213463
213742
213999
214221
214479
214793
215059
215287
215485
215719
216028
216166
216416
216660
216779
217082
217293
217551
217846
218045
218280
218407
218666
218922
219161
219420
219873
220089
220276
220442
220676
220957
221237
221517
221785
221994
222249
222449
222665
222946
223258
223512
223758
224025
224265
224478
224733
224998
225215
225477
225731
226040
226320
226562
226813
227072
227373
227609
227944
228156
228411
228669
228895
229097
229330
229585
229859
230098
230308
230526
230723
230975
231191
231386
231529
231784
232019
232243
232487
232685
232877
233102
233351
233609
233875
234113
234375
234620
234864
235056
235266
235498
235858
236099
236410
236702
236998
237228
237466
237711
237963
238277
238556
238807
239047
239281
239513
239744
239931
240172
240408
240644
240931
241203
241433
241665
241916
242120
242234
242568
242843
243147
243409
243632
243834
244122
244379
244596
244894
245134
245340
245592
245815
245992
246283
246511
246782
247112
247345
247666
247926
248209
248370
248639
248885
249214
249477
249695
249984
250219
250457
250710
250954
251196
251497
251746
252001
252236
252480
252718
252967
253210
253454
253699
253921
254183
254429
254647
254911
255141
255459
255732
255969
256177
256454
256719
256940
257173
257427
257660
257907
258171
258407
258644
258875
259116
259370
259605
259813
260064
260326
260574
260799
261024
261280
261527
261721
261946
262158
262536
262693
262935
263197
263413
263668
263942
264224
264501
264749
265012
265214
265448
265666
265910
266252
266506
266726
266980
267222
267536
267793
268117
268390
268605
268891
269130
269402
269627
269873
270121
270361
270570
270818
271137
271383
271618
271845
272083
272319
272553
272799
273031
273325
273564
273681
273938
274197
274452
274753
275024
275260
275564
275818
276040
276259
276539
276797
277056
277309
277517
277727
277979
278199
278419
278677
278921
279166
279391
279585
279822
280010
280333
280512
280746
280996
281257
281500
281758
281991
282223
282493
282703
282965
283177
283398
283680
283944
284238
284534
284813
285067
285286
285517
285775
286036
286287
286557
286822
287058
287208
287390
287621
287854
288090
288302
288620
288750
288936
289041
289379
289605
289840
290123
290388
290638
290840
291137
291445
291674
291913
292193
292441
292778
293038
293284
293518
293777
293993
294259
294498
294752
295048
295307
295569
295793
296030
296281
296564
296824
297100
297332
297563
297759
297908
298132
298326
298592
298808
298975
299131
299421
299688
299956
300220
300458
300715
300971
301173
301427
301684
301946
302197
302464
302696
302908
303135
303399
303627
303957
304178
304412
304654
304932
305187
305411
305683
305909
306100
306393
306553
306774
307018
307275
307540
307813
308067
308318
308529
308867
309084
309332
309589
309828
310081
310352
310607
310867
311047
311297
311625
311885
312114
312365
312600
312833
313078
313330
313556
313827
314095
314381
314619
314841
315100
315326
315560
315847
316025
316271
316385
316666
316912
317170
317473
317702
317954
318160
318404
318619
318882
319144
319390
319632
319876
320140
320383
320657
320947
321125
321364
321651
321875
322106
322419
322693
322898
323161
323479
323712
323960
324192
324440
324654
324898
325096
325411
325649
325848
326100
326299
326527
326752
327012
327276
327502
327757
327991
328226
328488
328816
329084
329320
329563
329777
329997
330217
330415
330661
330874
331103
331382
331671
331899
332155
332395
332609
332886
333108
333407
333574
333854
334071
334303
334568
334820
334951
335189
335423
335670
335963
336214
336458
336743
336953
337347
337604
337901
338152
338435
338653
338877
339119
339362
339462
339859
340135
340361
340473
340778
341000
341221
341449
341631
341899
342165
342410
342604
342847
343091
343421
343641
343878
344104
344339
344572
344823
345087
345347
345584
345835
346018
346277
346491
346673
346981
347085
347392
347614
347804
348034
348342
348547
348780
349051
349269
349397
349751
349902
350209
350391
350641
350914
351159
351372
351637
351909
352121
352367
352600
352908
353153
353389
353695
354093
354401
354596
354856
355093
355405
355673
355888
356136
356367
356605
356844
357080
357299
357597
357876
358132
358389
358608
358816
359050
359294
359548
359808
360056
360310
360431
360721
360927
361187
361537
361816
362068
362413
362605
362853
363111
363380
363628
363912
364162
364416
364639
364891
365132
365376
365639
365875
366096
366221
366557
366710
367041
367213
367433
367680
367812
368074
368243
368491
368788
368942
369266
369426
369709
369901
370132
370396
370618
370892
371170
371429
371644
371899
372182
372457
372719
372962
373220
373469
373733
373905
374146
374444
374705
374963
375243
375560
375824
376059
376330
376631
376852
377113
377246
377475
377713
377940
378280
378526
378811
379105
379375
379559
379814
380035
380261
380512
380811
380950
381190
381439
381703
381924
382114
382354
382615
382881
383198
383487
383741
384013
384278
384529
384752
384950
385193
385460
385717
386040
386384
386626
386864
387119
387406
387685
387940
388200
388383
388703
388957
389195
389352
389689
389877
390008
390247
390498
390613
390793
391086
391243
391609
391780
392028
392301
392578
392825
393094
393325
393634
393899
394182
394435
394668
394928
395177
395433
395673
395905
396195
396457
396707
396933
397103
397332
397536
397805
397976
398310
398481
398684
399003
399176
399601
399852
400225
400399
400687
401035
401308
401572
401710
401937
402171
402466
402756
403014
403274
403542
403774
404013
404215
404442
404732
405002
405271
405543
405824
406025
406268
406553
406819
407158
407379
407596
407799
408006
408296
408585
408822
409047
409312
409570
409799
410065
410324
410599
410884
411106
411345
411473
411749
412018
412300
412510
412813
413090
413307
413522
413795
414052
414318
414563
414784
415026
415238
415519
415768
415971
416199
416466
416706
417052
417388
417642
417942
418178
418431
418550
418881
419141
419367
419596
419858
420117
420405
420652
420919
421161
421425
421736
421953
422230
422509
422759
423052
423326
423573
423859
424130
424413
424609
424883
425138
425365
425587
425719
426023
426201
426532
426856
427099
427352
427601
427848
428091
428245
428577
428839
429089
429305
429509
429731
429924
430149
430443
430713
430997
431315
431543
431761
431999
432218
432536
432783
433054
433331
433604
433853
434084
434332
434613
434887
435073
435365
435565
435805
436036
436290
436407
436641
436878
437136
437402
437645
437893
438147
438400
438656
438875
439100
439389
439718
439933
440154
440371
440478
440795
441009
441262
441524
441757
442055
442300
442517
442747
442999
443252
443480
443737
443987
444255
444510
444743
444955
445155
445358
445714
445885
446176
446300
446551
446781
447002
447233
447477
447728
447975
448232
448512
448805
449073
449299
449527
449795
450081
450354
450579
450828
451240
451495
451714
451958
452201
452457
452728
452958
453214
453425
453680
453946
454239
454488
454682
454952
455189
455485
455747
456104
456361
456734
456974
457200
457410
457616
457870
458103
458339
458553
458794
459026
459263
459492
459714
459910
460116
460232
460557
460747
461026
461295
461527
461787
461908
462273
462541
462693
462947
463207
463444
463717
463986
464244
464464
464774
465086
465300
465545
465815
466071
466340
466544
466776
467001
467245
467467
467717
467842
468107
468373
468611
468854
469143
469437
469710
469976
470233
470472
470663
470883
471105
471338
471584
471879
472194
472422
472611
472820
473064
473286
473487
473753
474029
474267
474512
474747
474967
475208
475446
475664
475913
476169
476409
476610
476862
477093
477323
477679
477929
478245
478473
478729
478946
479199
479403
479634
479878
480217
480379
480673
481001
481264
481484
481702
481916
482121
482363
482675
482960
483102
483413
483586
483859
484071
484292
484512
484769
484992
485305
485577
485832
486065
486293
486570
486787
487045
487272
487537
487769
487995
488320
488537
488774
488994
489256
489486
489776
490035
490272
490502
490728
491008
491323
491660
491905
492175
492407
492785
493060
493171
493533
493803
494055
494275
494516
494763
494987
495197
495495
495850
496179
496446
496655
496791
497106
497346
497594
497857
497972
498225
498436
498711
498954
499206
499429
499633
499866
500095
500338
500603
500865
501113
501374
501567
501819
502089
502337
502565
502776
503026
503212
503420
503640
503876
504102
504364
504625
504856
505112
505398
505698
505898
506120
506382
506605
506828
506960
507337
507586
507814
508065
508273
508520
508785
509116
509356
509576
509792
510023
510272
510524
510793
511056
511304
511533
511762
511995
512190
512313
512555
512813
513061
513310
513603
513871
514209
514438
514713
514957
515223
515447
515561
515824
516034
516252
516458
516707
516937
517185
517433
517696
517945
518196
518418
518674
518946
519210
519421
519677
519939
520183
520433
520683
520937
521188
521473
521724
521962
522178
522383
522628
522879
523116
523383
523647
523881
524118
524451
524651
524822
525161
525392
525654
525911
526171
526419
526656
526873
527122
527364
527565
527860
528115
528378
528579
528817
529091
529314
529548
529747
530022
530250
530505
530712
530961
531219
531437
531644
531894
532169
532423
532710
532992
533220
533440
533685
533925
534175
534510
534749
534989
535278
535577
535815
536033
536249
536533
536794
537044
537311
537575
537811
538079
538302
538590
538848
539079
539354
539569
539814
540095
540321
540551
540782
541040
541298
541599
541813
542052
542251
542496
542892
543144
543381
543611
543845
544106
544450
544682
544899
545016
545383
545645
545870
546123
546418
546740
546957
547221
547521
547772
547997
548262
548523
548764
549025
549231
549488
549629
549895
550153
550395
550643
550735
551007
551248
551523
551824
552086
552199
552542
552851
553108
553372
553635
553838
554093
554402
554681
554915
555146
555411
555724
555992
556261
556513
556781
557060
557286
557567
557813
558072
558290
558511
558749
559029
559275
559543
559772
559995
560213
560477
560729
560988
561228
561431
561736
561987
562207
562482
562654
562959
563244
563488
563717
563953
564178
564458
564690
564900
565145
565347
565564
565876
566021
566434
566720
566984
567221
567435
567638
567866
567995
568229
568522
568864
569129
569395
569640
569864
570126
570383
570614
570844
571149
571394
571614
571886
572032
572292
572476
572712
572912
573172
573436
573698
574076
574329
574618
574887
575090
575333
575788
576111
576317
576525
576767
577041
577242
577542
577843
578102
578324
578589
578845
579072
579258
579528
579647
579993
580231
580476
580722
580923
581156
581443
581672
581918
582174
582456
582681
582878
583147
583274
583526
583757
584011
584274
584523
584719
585022
585260
585504
585741
585979
586233
586489
586733
586983
587243
587468
587673
587906
588109
588402
588549
588872
589042
589293
589580
589837
589956
590164
590418
590663
590903
591139
591352
591603
591885
592087
592337
592513
592776
593003
593285
593553
593832
594092
594359
594623
594877
595100
595382
595626
595864
596285
596583
596825
597002
597243
597413
597739
597879
598199
598422
598738
599017
599173
599439
599672
599866
600214
600471
600692
600908
601158
601426
601678
601896
602143
602250
602521
602757
602981
603208
603330
603651
603943
604169
604432
604694
605009
605221
605445
605690
605939
606196
606439
606724
606982
607212
607427
607660
607913
608174
608414
608526
608684
608877
609036
609364
609596
609930
610196
610446
610685
610890
611150
611367
611601
611843
612164
612439
612677
612907
613137
613352
613567
613815
614068
614274
614551
614821
615108
615268
615590
615809
616050
616304
616567
616822
617100
617316
617548
617786
618078
618332
618597
618863
619117
619381
619623
619820
620081
620346
620616
620912
621127
621348
621614
621848
622083
622309
622519
622788
623065
623345
623577
623786
623916
624163
624415
624634
625011
625295
625569
625774
626026
626259
626571
626806
627030
627310
627554
627815
628075
628330
628457
628790
629122
629400
629629
629873
630196
630487
630722
630946
631180
631459
631712
631940
632206
632360
632696
632855
633136
633268
633635
634138
634293
634622
634883
635089
635372
635594
635820
636073
636289
636550
636824
637066
637344
637577
637814
638059
638355
638573
638829
639092
639368
639577
639832
640085
640298
640512
640784
641043
641280
641521
641761
642013
642279
642506
642755
643034
643318
643570
643794
644017
644262
644416
644582
644828
645003
645282
645554
645808
646022
646257
646487
646774
646982
647236
647491
647673
647966
648243
648470
648744
648941
649216
649523
649758
