223
460
705
935
1181
1449
1723
1962
2204
2405
2612
2835
3061
3290
3558
3799
4043
4288
4524
4762
4987
5210
5449
5693
5929
6171
6408
6639
6864
7100
7342
7581
7824
8079
8343
8581
8816
9059
9290
9516
9753
10005
10244
10488
10728
10953
11179
11412
11648
11879
12108
12346
12587
12820
13053
13285
13509
13739
13984
14233
14480
14738
14992
15234
15467
15709
15949
16188
16427
16679
16935
17176
17423
17670
17907
18128
18356
18603
18847
19090
19313
19525
19738
19946
20159
20396
20639
20890
21135
21373
21611
21840
22057
22272
22508
22758
23021
23273
23518
23767
24009
24252
24485
24715
24963
25228
25478
25723
25974
26220
26450
26688
26938
27185
27433
27688
27936
28175
28412
28647
28882
29117
29348
29587
29828
30076
30312
30540
30770
30993
31221
31462
31718
31968
32200
32425
32643
32867
33086
33310
33542
33782
34016
34259
34497
34727
34955
35186
35423
35655
35897
36150
36401
36624
36848
37067
37291
37530
37761
38008
38235
38455
38692
38917
39137
39360
39574
39817
40070
40342
40617
40880
41113
41337
41552
41769
42003
42267
42525
42791
43023
43248
43478
43706
43935
44194
44424
44676
44927
45166
45402
45625
45842
46061
46296
46534
46774
47012
47244
47452
47674
47911
48159
48398
48644
48889
49127
49363
49592
49807
50021
50235
50466
50716
50960
51203
51448
51692
51920
52152
52390
52608
52830
53058
53296
53530
53755
53982
54198
54409
54632
54855
55086
55318
55536
55756
55975
56188
56394
56596
56801
56998
57199
57411
57622
57845
58073
58291
58502
58704
58920
59145
59376
59604
59818
60046
60275
60491
60706
60919
61130
61350
61575
61808
62041
62274
62500
62721
62939
63160
63380
63610
63841
64069
64309
64539
64762
64984
65200
65417
65626
65848
66089
66333
66567
66798
67023
67241
67457
67691
67938
68188
68427
68672
68920
69158
69395
69643
69878
70114
70365
70617
70864
71109
71350
71589
71821
72055
72292
72535
72777
73026
73268
73508
73737
73957
74178
74400
74628
74867
75113
75360
75602
75830
76057
76279
76514
76756
76997
77229
77474
77710
77932
78154
78382
78607
78834
79065
79313
79558
79790
80022
80244
80472
80699
80928
81164
81403
81628
81860
82087
82311
82532
82760
82992
83223
83463
83716
83980
84224
84446
84677
84893
85112
85339
85570
85810
86043
86272
86501
86726
86957
87185
87423
87674
87922
88169
88414
88652
88874
89096
89317
89546
89786
90027
90266
90516
90755
90985
91214
91444
91680
91917
92159
92404
92651
92881
93107
93339
93567
93793
94025
94263
94505
94737
94965
95192
95415
95632
95860
96094
96330
96568
96805
97042
97274
97492
97707
97919
98134
98363
98596
98825
99069
99300
99529
99750
99973
100200
100422
100648
100887
101130
101360
101581
101798
102012
102231
102450
102672
102890
103113
103340
103566
103781
103992
104199
104424
104649
104880
105116
105350
105573
105785
106001
106220
106439
106659
106895
107126
107355
107585
107817
108029
108245
108470
108687
108904
109127
109362
109593
109825
110059
110295
110523
110751
110980
111218
111454
111695
111946
112193
112444
112684
112919
113143
113365
113596
113833
114069
114310
114547
114783
115010
115241
115478
115722
115967
116210
116455
116684
116908
117137
117369
117611
117852
118097
118339
118576
118805
119027
119243
119456
119673
119911
120159
120406
120645
120875
121106
121329
121551
121767
121991
122222
122452
122682
122920
123155
123373
123581
123811
124046
124271
124510
124751
124978
125206
125413
125637
125844
126051
126272
126508
126746
126988
127219
127440
127656
127867
128087
128300
128528
128773
129012
129249
129478
129694
129912
130127
130347
130571
130804
131044
131287
131534
131779
132018
132243
132465
132688
132918
133154
133396
133629
133861
134088
134313
134542
134783
135024
135271
135508
135738
135981
136202
136422
136639
136846
137068
137316
137567
137808
138047
138285
138515
138733
138958
139195
139427
139660
139899
140153
140386
140610
140831
141061
141294
141525
141775
142028
142270
142511
142754
142994
143227
143456
143682
143922
144169
144401
144625
144851
145079
145308
145532
145774
146029
146278
146516
146758
146992
147206
147426
147655
147897
148135
148374
148618
148856
149077
149295
149502
149708
149920
150136
150369
150599
150821
151045
151264
151479
151691
151904
152121
152331
152548
152774
152997
153222
153431
153643
153850
154059
154266
154484
154724
154968
155211
155443
155655
155865
156072
156276
156487
156698
156916
157136
157364
157595
157814
158035
158246
158463
158689
158917
159152
159382
159613
159840
160050
160262
160478
160693
160919
161141
161368
161602
161829
162050
162268
162482
162703
162915
163139
163371
163604
163833
164044
164264
164483
164698
164916
165143
165376
165617
165843
166073
166306
166524
166737
166953
167179
167409
167637
167880
168124
168352
168581
168806
169028
169250
169480
169727
169971
170212
170450
170682
170903
171113
171327
171541
171759
171995
172255
172518
172751
172968
173178
173388
173603
173828
174065
174313
174551
174795
175042
175273
175495
175716
175945
176179
176421
176664
176901
177145
177377
177613
177844
178077
178316
178552
178783
179018
179250
179469
179692
179927
180161
180405
180659
180899
181133
181358
181579
181797
182007
182223
182450
182680
182916
183159
183409
183643
183874
184087
184297
184508
184717
184934
185153
185379
185603
185828
186071
186314
186556
186806
187051
187290
187533
187783
188017
188253
188476
188710
188972
189243
189504
189765
190016
190274
190521
190753
190985
191218
191459
191698
191944
192196
192448
192693
192924
193159
193398
193649
193889
194123
194357
194595
194843
195093
195331
195563
195794
196029
196260
196485
196712
196945
197167
197392
197630
197887
198139
198385
198619
198842
199054
199263
199480
199703
199928
200168
200405
200654
200902
201132
201359
201570
201778
201992
202207
202431
202660
202881
203100
203322
203551
203787
204021
204258
204501
204743
204979
205205
205432
205652
205867
206093
206325
206574
206820
207056
207279
207489
207697
207907
208115
208331
208557
208786
209025
209263
209515
209747
209965
210179
210401
210630
210857
211093
211330
211556
211772
211981
212200
212421
212639
212865
213096
213338
213572
213797
214022
214235
214454
214693
214936
215171
215399
215622
215847
216063
216279
216501
216734
216970
217211
217449
217676
217911
218146
218364
218585
218802
219032
219262
219500
219746
219994
220227
220455
220679
220903
221120
221349
221591
221832
222078
222314
222548
222784
223010
223235
223462
223714
223969
224209
224443
224668
224886
225105
225335
225568
225801
226032
226262
226497
226729
226950
227169
227388
227619
227853
228082
228315
228548
228769
228986
229194
229402
229615
229841
230084
230317
230550
230798
231044
231275
231501
231713
231922
232141
232342
232573
232787
232995
233189
233386
233589
233796
234018
234236
234465
234703
234935
235170
235399
235622
235841
236059
236298
236541
236775
237013
237256
237490
237717
237937
238157
238389
238620
238860
239102
239347
239593
239818
240036
240261
240478
240694
240919
241152
241386
241615
241845
242068
242283
242508
242730
242957
243209
243464
243709
243942
244168
244380
244587
244787
244995
245212
245441
245683
245925
246159
246392
246622
246862
247103
247342
247580
247811
248041
248268
248486
248713
248937
249152
249383
249628
249876
250119
250343
250558
250763
250962
251162
251372
251591
251853
252109
252376
252564
252836
253065
253289
253501
253723
253962
254209
254451
254703
254953
255461
255713
255962
256205
256441
256682
256923
257154
257377
257614
257854
258092
258333
258582
258830
259066
259292
259512
259728
259945
260170
260409
260639
261000
261593
261825
262049
262278
262521
262782
263053
263307
263535
263761
263985
264208
264429
264648
264887
265117
265344
265559
265778
265987
266197
266412
266634
266875
267125
267362
267600
267818
268029
268239
268443
268665
268886
269105
269327
269543
269769
269998
270211
270416
270625
270840
271065
271290
271536
271772
272006
272233
272444
272652
272857
273066
273276
273487
273696
273906
274121
274329
274563
274816
275292
275527
275769
276010
276243
276460
276679
276897
277117
277340
277582
278121
278377
278623
278848
279059
279274
279489
279707
279936
280182
280451
280714
280958
281201
281444
281683
281928
282182
282435
282673
282915
283157
283394
283626
283860
284097
284337
284587
284834
285075
285294
285523
285756
285985
286218
286461
286695
286932
287159
287392
287628
287860
288083
288303
288531
288764
288999
289234
289471
289716
289945
290168
290407
290644
290883
291112
291346
291572
291802
292014
292220
292422
292630
292842
293069
293303
293528
293748
293964
294178
294394
294627
294843
295071
295297
295537
295772
295996
296224
296453
296670
296889
297123
297358
297599
297833
298059
298289
298510
298729
298959
299197
299443
299675
299907
300137
300365
300588
300808
301028
301255
301490
301727
301961
302195
302419
302632
302850
303068
303290
303538
303795
304051
304293
304520
304737
304951
305165
305388
305626
305876
306139
306400
306644
306888
307122
307354
307585
307820
308059
308304
308542
308780
309013
309252
309481
309708
309939
310184
310429
310668
310903
311131
311360
311584
311808
312037
312276
312509
312739
312971
313202
313424
313641
313861
314092
314325
314552
314801
315052
315288
315510
315722
315938
316164
316390
316627
316860
317108
317367
317607
317845
318076
318298
318522
318742
318975
319224
319469
319699
319916
320132
320359
320602
320857
321115
321369
321605
321837
322069
322307
322548
322793
322895
323029
323274
323512
323739
323967
324201
324422
324642
324863
325105
325364
325621
325864
326096
326320
326542
326768
327005
327252
327492
327745
328006
328255
328490
328715
328932
329156
329399
329662
329917
330165
330403
330634
330861
331081
331299
331526
331779
332031
332293
332548
332778
333006
333235
333466
333714
333956
334180
334415
334652
334872
335102
335335
335566
335796
336035
336293
336563
336811
337042
337266
337487
337704
337924
338154
338375
338605
338840
339094
339346
339589
339822
340053
340291
340532
340782
341033
341280
341504
341717
341940
342177
342424
342678
342924
343173
343416
343662
343902
344136
344361
344582
344815
345066
345315
345562
345797
346030
346268
346513
346764
347002
347239
347472
347714
347943
348162
348386
348633
348884
349151
349411
349661
349899
350135
350359
350587
350828
351089
351361
351643
351894
352142
352386
352629
352854
353075
353311
353556
353811
354056
354303
354571
354843
355104
355351
355594
355834
356066
356304
356537
356766
357013
357273
357541
357796
358066
358338
358594
358840
359063
359288
359528
359769
360011
360252
360497
360738
360982
361214
361454
361710
361962
362213
362479
362735
362969
363194
363433
363670
363904
364141
364381
364629
364862
365095
365323
365559
365805
366042
366762
366988
367203
367408
367605
367814
368042
368279
368527
368768
369006
369239
369459
369681
369888
370098
370329
370558
370803
371061
371310
371549
371771
372012
372253
372503
372762
373012
373253
373477
373691
373901
374108
374316
374537
374774
375023
375263
375500
375732
375975
376197
376418
376637
376855
377083
377311
377542
377771
378004
378236
378468
378693
378921
379150
379394
379642
379884
380116
380348
380570
380788
381005
381235
381474
381709
381935
382163
382390
382610
382819
383030
383254
383490
383721
383957
384202
384439
384679
384914
385142
385363
385576
385795
386007
386217
386442
386663
386888
387115
387346
387573
387805
388039
388282
388523
388753
388971
389192
389408
389631
389856
390088
390323
390556
390786
391014
391236
391461
391678
391900
392136
392367
392601
392827
393039
393251
393466
393683
393905
394131
394368
394598
394836
395087
395328
395558
395804
396044
396290
396541
396801
397049
397313
397559
397804
398038
398267
398514
398783
399048
399299
399540
399784
400020
400257
400944
401282
401700
401916
402056
402428
402651
402890
403136
403367
403601
403833
404099
404334
404573
404806
405037
405223
405362
405517
406032
406227
406453
406681
406912
407158
407413
407658
407905
408151
408402
408640
408872
409096
409326
409565
409797
410040
410278
410507
410742
410976
411215
411468
411722
411967
412213
412443
412678
412904
413134
413362
413595
413835
414090
414351
414597
414834
415071
415302
415532
415769
416018
416264
416511
416754
417002
417238
417473
417708
417952
418300
418462
418702
418932
419154
419385
419597
419819
420042
420277
420510
420758
421010
421244
421473
421708
421931
422153
422374
422610
422851
423086
423307
423529
423757
423979
424217
424462
424701
424948
425191
425437
425672
425897
426118
426343
426574
426808
427063
427314
427558
427799
428036
428272
428508
428746
428990
429232
429477
429724
429966
430207
430449
430692
430928
431184
431442
431689
431916
432133
432347
432564
432789
433018
433264
433520
433761
434006
434247
434470
434685
434905
435136
435371
435608
435852
436107
436342
436571
436810
437056
437296
437549
437807
438061
438310
438560
438802
439034
439267
439506
439749
440004
440261
440516
440749
440987
441226
441461
441699
441954
442203
442445
442694
442937
443171
443402
443637
443886
444134
444387
444644
444900
445135
445362
445588
445816
446035
446266
446487
446719
446963
447192
447414
447645
447873
448103
448336
448587
448843
449085
449321
449560
449802
450029
450262
450509
450750
450990
451233
451474
451711
451941
452180
452418
452660
452896
453141
453385
453610
453835
454062
454295
454532
454778
455022
455266
455514
455754
455990
456220
456447
456684
456918
457165
457414
457657
457889
458129
458365
458585
458821
459067
459305
459542
459782
460023
460252
460472
460697
460931
461179
461417
461655
461899
462130
462359
462582
462810
463039
463273
463519
463765
464013
464254
464496
464730
464955
465189
465427
465676
465935
466190
466433
466661
466886
467113
467340
467570
467809
468065
468312
468560
468807
469049
469280
469513
469756
470001
470243
470499
470750
470989
471219
471459
471709
471952
472201
472465
472715
472954
473195
473438
473668
473903
474151
474402
474646
474898
475144
475381
475625
475871
476113
476358
476615
476868
477114
477358
477601
477833
478059
478299
478551
478801
479051
479305
479552
479780
480012
480252
480498
480750
481005
481261
481508
481747
481989
482234
482480
482723
482972
483235
483497
483746
483979
484219
484460
484699
484951
485205
485480
485735
486001
486260
486504
486742
486994
487258
487516
487774
488032
488283
488523
488769
489027
489285
489535
489778
490026
490272
490521
490760
491004
491266
491530
491793
492065
492321
492557
492790
493024
493257
493495
493743
493998
494250
494499
494743
494973
495200
495423
495650
495894
496139
496378
496616
496848
497071
497294
497526
497765
498013
498255
498501
498754
498993
499225
499462
499706
499936
500181
500446
500702
500952
501198
501440
501673
501910
502161
502557
502920
503736
503912
504180
504411
504649
504901
505130
505349
505570
505795
506018
506241
506475
506708
506942
507190
507434
507681
507919
508144
508369
508595
508823
509050
509270
509481
509691
509903
510113
510327
510565
510813
511055
511295
511554
511811
512044
512275
512502
512733
512970
513209
513443
513689
513942
514185
514415
514654
514898
515158
515407
515666
515925
516177
516414
516646
516884
517122
517371
517632
517899
518163
518416
518665
518913
519155
519396
519649
519912
520163
520409
520660
520903
521130
521363
521609
521865
522124
522399
522655
522901
523143
523376
523603
523836
524074
524317
524557
524799
525045
525286
525509
525749
525996
526248
526508
526771
527024
527263
527515
527770
528050
528332
528599
528847
529101
529350
529586
529814
530067
530353
530632
530899
531180
531447
531689
533156
533457
533792
534063
534311
534557
534807
535053
535303
535559
535811
536076
536348
536616
536872
537138
537403
537662
537907
538151
538386
538618
538848
539091
539326
539573
539810
540034
540251
540477
540705
540931
541168
541423
541685
541929
542161
542393
542617
542843
543068
543305
543565
543820
544056
544307
544542
544767
544994
545231
545469
545708
545949
546203
546448
546681
546915
547156
547395
547640
547892
548148
548391
548630
548874
549116
549363
549622
549879
550139
550404
550667
550909
551148
551382
551615
551868
552139
552397
552642
552889
553127
553350
553578
553821
554064
554311
554568
554834
555081
555320
555558
555805
556050
556303
556562
556815
557058
557304
557543
557782
558015
558259
558511
558761
559014
559269
559510
559748
559993
560226
560465
560722
560974
561219
561455
561686
561904
562123
562349
562582
562823
563073
563326
563577
563823
564070
564303
564540
564787
565038
565287
565543
565797
566032
566266
566516
566765
567013
567264
567531
567785
568037
568294
568543
568776
569018
569277
569537
569791
570044
570287
570522
570756
570996
571258
571513
571770
572029
572298
572548
572760
573012
573254
573507
573766
574017
574266
574517
574750
574994
575258
575530
575801
576056
576311
576559
576797
577022
577249
577479
577728
578008
578435
578790
579149
579462
579683
579868
580129
580382
580628
581003
581339
581573
581824
582076
582332
582610
582878
583134
583393
583656
583902
584145
584401
584668
584927
585176
585417
585654
585890
586118
586358
586608
586869
587116
587370
587617
587864
588102
588346
588594
588842
589088
589340
589582
589815
590040
590272
590518
590765
591017
591279
591534
591765
591994
592231
592459
592688
592918
593164
593437
593711
594270
594517
594766
595023
595271
595518
595759
595993
596219
596444
596674
596914
597169
597437
597696
597969
598238
598499
598735
598979
599225
599478
599731
599989
600245
600501
600738
600984
601230
601478
601726
601984
602242
602495
602735
602969
603207
603445
603686
603942
604202
604453
604698
604942
605180
605413
605648
605891
606144
606391
606645
606900
607146
607375
607609
607856
608101
608353
608609
608859
609109
609349
609588
609832
610086
610330
610594
610864
611128
611370
611606
611845
612076
612317
612580
612846
613093
613342
613592
613827
614062
614305
614547
614788
615032
615295
615545
615779
616009
616241
616480
616720
616971
617232
617488
617727
617958
618194
618427
618664
618903
619153
619403
619651
619894
620133
620376
620617
620869
621118
621368
621619
621880
622120
622348
622578
622818
623046
623289
623516
623755
623989
624236
624489
624722
624946
625168
625405
625648
625883
626110
626344
626585
626820
627044
627273
627521
627776
628016
628257
628496
628722
628941
629159
629389
629627
629868
630114
630372
630628
630856
631079
631310
631530
631750
631966
632192
632439
632689
632925
633160
633413
633661
633909
634170
634433
634692
634933
635175
635420
635655
635882
636125
636387
636638
636895
637149
637381
637606
637826
638389
638686
638973
639241
639485
639718
639958
640201
640463
640730
641010
641296
641583
641838
642094
642356
642612
642877
643149
643419
643667
643925
644181
644429
644662
644914
645179
645435
645705
645974
646221
646448
646691
646942
647196
647446
647681
647909
648136
648365
648599
648860
649137
649410
649669
