212
450
695
923
1167
1439
1706
1951
2189
2396
2603
2825
3048
3278
3546
3787
4028
4276
4514
4751
4974
5198
5437
5679
5915
6158
6396
6628
6852
7089
7331
7568
7810
8066
8329
8569
8804
9047
9278
9504
9739
9990
10231
10476
10714
10941
11168
11400
11636
11866
12095
12334
12572
12807
13042
13274
13498
13729
13970
14219
14465
14725
14980
15222
15455
15697
15938
16175
16414
16667
16924
17164
17413
17660
17897
18116
18343
18589
18835
19078
19301
19514
19728
19934
20147
20384
20627
20878
21119
21361
21601
21828
22046
22261
22497
22759
23022
23274
23518
23767
24010
24252
24486
24716
24964
25228
25479
25724
25974
26221
26450
26688
26938
27185
27432
27687
27936
28176
28412
28648
28882
29117
29348
29587
29828
30077
30312
30540
30770
30993
31221
31462
31719
31969
32201
32425
32644
32867
33087
33310
33542
33782
34016
34259
34498
34728
34955
35186
35423
35655
35897
36150
36401
36623
36847
37066
37293
37530
37761
38008
38235
38455
38680
38905
39126
39347
39564
39805
40070
40342
40618
40881
41114
41337
41552
41770
42004
42266
42525
42792
43022
43248
43478
43706
43935
44193
44424
44676
44926
45165
45402
45625
45842
46061
46296
46535
46773
47012
47245
47451
47674
47910
48159
48399
48644
48890
49128
49363
49592
49807
50020
50235
50466
50716
50959
51203
51448
51692
51920
52152
52389
52607
52829
53058
53296
53530
53755
53982
54198
54409
54620
54842
55073
55301
55521
55741
55960
56173
56380
56583
56789
56984
57186
57395
57608
57832
58058
58277
58488
58693
58910
59132
59362
59589
59807
60034
60263
60480
60696
60907
61119
61340
61563
61795
62028
62263
62490
62710
62929
63149
63368
63597
63827
64057
64295
64526
64750
64974
65189
65406
65615
65837
66077
66317
66553
66786
67012
67230
67445
67679
67927
68173
68414
68660
68909
69145
69384
69632
69868
70103
70352
70604
70851
71097
71340
71579
71809
72044
72281
72519
72762
73012
73254
73492
73723
73945
74165
74385
74614
74854
75094
75342
75585
75815
76044
76268
76502
76744
76980
77216
77461
77694
77917
78143
78370
78595
78819
79052
79301
79542
79777
80011
80234
80459
80688
80915
81150
81385
81614
81847
82074
82296
82522
82748
82981
83207
83450
83705
83967
84209
84434
84667
84882
85100
85325
85559
85797
86029
86260
86490
86716
86945
87173
87411
87663
87908
88156
88404
88642
88863
89084
89306
89535
89772
90014
90255
90506
90742
90971
91204
91433
91669
91903
92145
92391
92639
92869
93097
93329
93557
93780
94013
94252
94494
94722
94953
95183
95402
95620
95849
96081
96317
96551
96791
97030
97262
97479
97694
97907
98122
98348
98579
98809
99054
99288
99515
99739
99961
100189
100408
100634
100874
101115
101345
101565
101782
101997
102216
102434
102656
102876
103099
103327
103553
103769
103981
104188
104413
104639
104870
105102
105334
105559
105774
105990
106209
106426
106648
106881
107109
107339
107567
107801
108017
108233
108455
108671
108890
109113
109346
109579
109811
110045
110283
110509
110738
110966
111202
111438
111680
111931
112194
112445
112685
112920
113143
113366
113597
113834
114069
114310
114547
114783
115011
115241
115478
115723
115967
116210
116455
116685
116908
117137
117368
117610
117852
118098
118339
118577
118805
119028
119243
119457
119673
119912
120159
120406
120646
120875
121107
121329
121551
121767
121992
122223
122453
122682
122921
123155
123373
123581
123811
124046
124272
124510
124752
124979
125206
125413
125623
125832
126037
126257
126492
126732
126974
127203
127427
127644
127856
128073
128287
128515
128758
128996
129235
129464
129682
129901
130114
130333
130559
130790
131031
131272
131519
131766
132006
132230
132450
132677
132904
133141
133380
133615
133849
134074
134299
134530
134769
135025
135272
135509
135739
135968
136188
136409
136624
136835
137055
137299
137549
137793
138034
138272
138503
138721
138945
139180
139412
139644
139884
140137
140372
140598
140818
141049
141281
141511
141759
142013
142254
142496
142742
142982
143214
143442
143670
143909
144153
144385
144612
144840
145069
145295
145519
145759
146017
146264
146505
146746
146978
147193
147413
147645
147883
148121
148360
148604
148842
149064
149284
149490
149696
149908
150124
150357
150586
150808
151035
151253
151465
151679
151894
152108
152317
152533
152760
152986
153208
153421
153632
153840
154047
154253
154471
154712
154955
155197
155429
155645
155854
156060
156264
156475
156683
156902
157122
157351
157581
157801
158022
158233
158449
158676
158903
159136
159369
159600
159826
160038
160250
160466
160681
160906
161126
161355
161589
161815
162038
162255
162470
162690
162904
163125
163357
163589
163818
164034
164253
164472
164686
164905
165131
165364
165603
165830
166059
166291
166511
166725
166940
167165
167396
167623
167866
168110
168340
168570
168793
169014
169237
169466
169712
169957
170196
170435
170669
170887
171101
171312
171525
171743
171979
172241
172506
172738
172954
173167
173375
173589
173814
174050
174298
174536
174779
175029
175260
175482
175702
175932
176164
176405
176648
176887
177133
177367
177599
177831
178062
178300
178535
178767
179004
179235
179456
179679
179915
180149
180391
180644
180883
181118
181344
181566
181783
181994
182211
182437
182668
182900
183144
183394
183632
183863
184075
184284
184494
184704
184920
185139
185367
185591
185815
186059
186315
186556
186807
187052
187291
187533
187784
188018
188253
188474
188709
188973
189244
189505
189766
190016
190274
190521
190755
190985
191218
191459
191698
191943
192196
192448
192693
192924
193159
193398
193649
193889
194122
194356
194596
194843
195093
195331
195564
195794
196029
196260
196486
196712
196944
197167
197392
197630
197887
198139
198386
198620
198842
199054
199263
199480
199703
199929
200153
200392
200640
200888
201119
201347
201556
201764
201977
202190
202417
202645
202868
203088
203308
203538
203773
204007
204247
204487
204729
204966
205192
205419
205639
205854
206081
206312
206560
206807
207040
207266
207477
207684
207894
208101
208316
208542
208770
209011
209251
209499
209733
209951
210168
210387
210614
210842
211079
211315
211543
211761
211970
212187
212407
212625
212851
213083
213324
213557
213784
214009
214226
214445
214682
214921
215154
215386
215609
215835
216050
216265
216489
216723
216957
217196
217433
217664
217897
218131
218353
218574
218790
219019
219249
219487
219733
219981
220215
220444
220665
220889
221107
221335
221577
221819
222062
222298
222536
222771
222999
223222
223448
223699
223953
224193
224429
224653
224872
225091
225321
225554
225785
226016
226246
226482
226715
226938
227156
227375
227605
227838
228066
228300
228533
228756
228974
229180
229387
229599
229828
230069
230302
230534
230783
231028
231263
231489
231700
231910
232121
232340
232559
232769
232976
233173
233371
233575
233783
234002
234218
234450
234686
234918
235151
235382
235609
235824
236046
236283
236523
236756
236997
237240
237474
237701
237921
238143
238373
238605
238843
239085
239330
239576
239799
240021
240246
240462
240681
240902
241133
241370
241600
241831
242052
242269
242494
242714
242942
243193
243448
243694
243928
244152
244366
244571
244775
244980
245197
245427
245666
245909
246145
246378
246611
246847
247087
247328
247566
247795
248029
248255
248474
248700
248923
249139
249370
249615
249861
250101
250327
250545
250751
250949
251151
251357
251578
251840
252110
252370
252603
252839
253067
253291
253502
253724
253963
254210
254452
254703
254953
255213
255462
255714
255963
256207
256442
256683
256924
257155
257378
257615
257855
258093
258334
258582
258830
259067
259293
259513
259729
259945
260171
260410
260641
260870
261102
261342
261595
261826
262050
262278
262521
262783
263054
263308
263536
263761
263985
264209
264430
264649
264872
265100
265325
265544
265764
265975
266184
266397
266619
266859
267108
267347
267583
267802
268015
268224
268431
268651
268869
269087
269308
269530
269753
269980
270196
270403
270613
270828
271048
271274
271520
271756
271993
272220
272429
272634
272840
273050
273259
273472
273678
273888
274105
274314
274550
274803
275056
275293
275528
275770
276011
276244
276460
276679
276898
277117
277340
277583
277857
278121
278378
278624
278849
279061
279275
279490
279708
279937
280183
280452
280716
280958
281202
281445
281684
281929
282183
282436
282674
282916
283158
283396
283627
283861
284098
284339
284588
284835
285076
285296
285524
285757
285986
286219
286462
286696
286934
287160
287392
287629
287862
288085
288304
288533
288765
289001
289235
289472
289718
289946
290169
290408
290646
290885
291114
291347
291573
291788
291999
292207
292407
292616
292826
293054
293287
293512
293734
293951
294165
294380
294599
294827
295055
295283
295522
295755
295980
296211
296437
296655
296875
297104
297342
297582
297816
298045
298275
298495
298713
298944
299182
299426
299655
299890
300123
300351
300572
300795
301015
301241
301471
301708
301945
302179
302404
302618
302836
303053
303275
303523
303780
304036
304274
304502
304722
304937
305153
305372
305607
305861
306124
306381
306628
306873
307107
307337
307570
307804
308046
308289
308527
308768
309002
309240
309468
309696
309926
310169
310413
310653
310891
311119
311346
311571
311796
312022
312260
312491
312722
312955
313188
313411
313629
313850
314078
314308
314538
314787
315037
315275
315495
315709
315925
316150
316375
316609
316844
317095
317354
317595
317833
318065
318284
318505
318726
318959
319209
319454
319684
319900
320119
320347
320588
320842
321101
321354
321590
321823
322056
322296
322538
322776
323019
323259
323493
323723
323955
324186
324409
324627
324848
325091
325349
325606
325849
326082
326305
326528
326756
326991
327238
327477
327731
327993
328240
328477
328700
328920
329143
329386
329646
329902
330151
330388
330620
330848
331068
331286
331514
331762
332016
332279
332534
332764
332993
333223
333454
333699
333938
334167
334402
334636
334860
335090
335323
335551
335780
336019
336278
336547
336797
337028
337255
337475
337690
337912
338136
338359
338589
338826
339081
339333
339577
339808
340039
340275
340516
340767
341018
341265
341490
341705
341926
342164
342410
342662
342907
343156
343403
343650
343889
344122
344345
344564
344798
345051
345300
345547
345783
346019
346256
346500
346750
346985
347224
347459
347699
347928
348147
348374
348621
348885
349153
349412
349662
349900
350136
350361
350587
350828
351089
351362
351644
351895
352142
352387
352630
352855
353077
353311
353557
353812
354056
354302
354571
354843
355105
355351
355595
355834
356067
356305
356537
356766
357013
357274
357542
357796
358065
358338
358595
358841
359064
359289
359529
359769
360012
360253
360497
360738
360983
361215
361454
361710
361963
362214
362480
362736
362970
363194
363433
363670
363904
364142
364381
364630
364863
365095
365323
365560
365805
366043
366274
366508
366743
366970
367189
367391
367591
367800
368028
368265
368510
368753
368991
369223
369445
369668
369875
370085
370314
370544
370787
371044
371294
371535
371757
371996
372239
372491
372745
372999
373237
373459
373676
373888
374094
374302
374523
374759
375007
375244
375484
375732
375962
376183
376402
376620
376840
377065
377296
377524
377755
377988
378221
378451
378677
378906
379135
379375
379626
379865
380103
380333
380554
380773
380991
381219
381459
381691
381919
382147
382376
382595
382805
383018
383241
383473
383702
383940
384184
384422
384663
384900
385126
385345
385559
385777
385988
386201
386426
386648
386871
387100
387327
387558
387786
388021
388266
388506
388736
388957
389176
389395
389616
389839
390072
390308
390539
390769
391000
391222
391445
391662
391885
392120
392348
392583
392810
393024
393237
393452
393667
393889
394116
394352
394581
394821
395072
395313
395546
395792
396045
396293
396543
396802
397050
397313
397561
397806
398038
398268
398515
398784
399050
399300
399541
399785
400021
400257
400477
400703
400944
401194
401443
401698
401948
402184
402414
402651
402890
403136
403370
403612
403858
404099
404334
404574
404807
405036
405276
405522
405763
405998
406227
406452
406680
406912
407157
407413
407658
407905
408151
408401
408640
408872
409096
409326
409565
409799
410041
410277
410506
410742
410976
411215
411469
411723
411967
412212
412451
412678
412904
413133
413362
413594
413834
414090
414350
414597
414833
415071
415302
415532
415769
416019
416264
416512
416753
417001
417237
417473
417707
417952
418209
418463
418702
418932
419155
419368
419580
419801
420025
420257
420495
420744
420994
421228
421464
421696
421918
422138
422360
422595
422834
423067
423293
423516
423742
423967
424203
424445
424684
424932
425176
425422
425657
425884
426107
426329
426558
426793
427049
427296
427542
427785
428023
428256
428495
428731
428974
429215
429461
429709
429950
430194
430435
430675
430913
431168
431427
431672
431902
432121
432335
432550
432774
433005
433250
433504
433744
433991
434234
434455
434672
434892
435121
435356
435592
435837
436094
436329
436559
436797
437041
437282
437535
437791
438043
438298
438548
438788
439022
439255
439492
439731
439988
440248
440502
440735
440975
441214
441446
441685
441942
442189
442431
442681
442925
443159
443390
443624
443871
444120
444371
444630
444885
445121
445350
445576
445803
446023
446250
446472
446706
446951
447180
447402
447632
447859
448089
448322
448571
448828
449071
449309
449545
449787
450014
450249
450493
450734
450975
451215
451457
451696
451928
452167
452401
452639
452878
453126
453368
453595
453824
454049
454279
454518
454762
455006
455249
455498
455740
455976
456207
456435
456670
456901
457148
457398
457640
457877
458118
458350
458572
458808
459050
459288
459529
459766
460006
460237
460460
460686
460920
461162
461400
461641
461885
462117
462344
462569
462798
463026
463260
463506
463747
463994
464239
464485
464715
464942
465173
465408
465659
465919
466173
466416
466646
466873
467099
467325
467556
467793
468048
468294
468544
468794
469037
469267
469501
469743
469983
470228
470483
470734
470975
471207
471446
471693
471938
472188
472448
472698
472939
473183
473425
473654
473891
474135
474384
474631
474884
475129
475367
475614
475858
476098
476344
476599
476852
477098
477345
477589
477820
478044
478284
478537
478783
479036
479291
479537
479766
479998
480238
480482
480733
480988
481244
481491
481730
481975
482223
482466
482707
482957
483221
483481
483732
483967
484207
484448
484685
484935
485206
485480
485736
486001
486260
486506
486744
486994
487258
487516
487774
488033
488284
488523
488770
489028
489286
489537
489779
490026
490273
490521
490760
491004
491265
491531
491793
492065
492321
492557
492789
493024
493257
493496
493743
493998
494251
494499
494742
494972
495199
495422
495649
495893
496139
496378
496617
496849
497071
497294
497526
497764
498013
498254
498500
498755
498994
499225
499462
499706
499937
500181
500446
500702
500952
501199
501441
501673
501911
502162
502420
502675
502919
503180
503445
503697
503949
504181
504412
504649
504882
505110
505332
505556
505780
506001
506227
506460
506688
506924
507174
507417
507666
507904
508131
508356
508576
508803
509032
509251
509467
509676
509886
510097
510311
510549
510796
511035
511279
511536
511793
512027
512259
512488
512718
512955
513190
513426
513674
513926
514170
514398
514639
514885
515142
515389
515648
515909
516160
516397
516631
516870
517106
517351
517614
517881
518148
518399
518648
518896
519137
519380
519633
519894
520144
520390
520645
520889
521115
521348
521592
521846
522107
522381
522644
522887
523126
523360
523589
523821
524056
524296
524542
524783
525029
525268
525493
525733
525978
526229
526491
526753
527006
527246
527500
527771
528051
528332
528601
528848
529102
529351
529586
529815
530068
530353
530631
530900
531180
531448
531690
531929
532172
532466
532803
533158
533491
533793
534064
534312
534558
534807
535054
535303
535559
535812
536076
536348
536617
536873
537138
537404
537664
537908
538151
538386
538619
538848
539072
539307
539553
539791
540018
540235
540460
540689
540913
541154
541409
541666
541908
542145
542377
542603
542827
543051
543288
543547
543799
544042
544292
544525
544751
544979
545214
545450
545690
545931
546184
546431
546666
546901
547140
547378
547622
547874
548129
548373
548614
548858
549099
549350
549608
549861
550120
550387
550649
550894
551134
551369
551601
551853
552123
552379
552628
552874
553110
553335
553563
553805
554047
554295
554550
554817
555067
555308
555544
555790
556036
556285
556547
556799
557043
557291
557529
557766
558001
558245
558494
558743
558998
559251
559492
559733
559975
560209
560447
560703
560957
561200
561437
561669
561891
562107
562331
562566
562805
563056
563306
563560
563809
564055
564287
564524
564772
565018
565270
565528
565780
566016
566251
566501
566749
566995
567248
567512
567767
568023
568278
568526
568762
569002
569258
569519
569774
570028
570270
570505
570739
570981
571243
571514
571771
572030
572299
572544
572778
573012
573254
573508
573767
574018
574266
574518
574750
574994
575258
575530
575802
576058
576311
576560
576798
577023
577250
577480
577730
578009
578292
578565
578814
579060
579317
579598
579869
580130
580381
580628
580879
581111
581339
581573
581825
582077
582333
582611
582880
583135
583394
583657
583903
584146
584402
584669
584928
585177
585419
585654
585890
586119
586358
586609
586870
587117
587370
587617
587864
588103
588346
588595
588843
589088
589340
589582
589815
590040
590273
590519
590766
591018
591279
591535
591766
591994
592232
592460
592688
592918
593165
593437
593711
594005
594271
594518
594766
595023
595272
595518
595760
595994
596220
596445
596675
596914
597169
597438
597696
597969
598238
598500
598735
598980
599226
599479
599731
599989
600246
600502
600739
600985
601231
601479
601727
601985
602242
602495
602736
602970
603207
603446
603688
603943
604203
604455
604699
604942
605181
605414
605649
605892
606145
606393
606646
606901
607147
607376
607610
607857
608103
608355
608610
608860
609110
609351
609589
609833
610087
610331
610595
610865
611129
611371
611607
611846
612078
612319
612581
612847
613094
613342
613593
613828
614063
614306
614548
614789
615034
615296
615546
615780
616010
616242
616481
616721
616971
617233
617490
617728
617960
618195
618428
618664
618904
619154
619405
619652
619895
620133
620376
620618
620871
621119
621368
621619
621880
622120
622348
622578
622818
623046
623270
623498
623735
623973
624221
624469
624706
624930
625151
625387
625631
625863
626093
626328
626571
626804
627027
627258
627505
627757
627995
628238
628480
628705
628925
629144
629374
629610
629849
630098
630356
630610
630838
631065
631295
631517
631735
631948
632175
632423
632671
632909
633146
633398
633644
633891
634152
634416
634674
634916
635161
635407
635638
635865
636110
636372
636621
636880
637134
637364
637589
637810
638091
638390
638687
638974
639243
639487
639719
639960
640202
640464
640731
641011
641297
641584
641840
642095
642356
642613
642878
643150
643420
643669
643926
644181
644431
644663
644914
645180
645436
645705
645975
646222
646449
646692
646943
647198
647446
647682
647910
648137
648366
648600
648860
649138
649412
649671
649956
