94
251
476
671
871
1074
1270
1465
1653
1848
2044
2234
2431
2630
2831
3019
3217
3407
3601
3804
4005
4199
4398
4590
4783
4974
5170
5372
5569
5769
5960
6154
6345
6542
6740
6939
7133
7331
7520
7713
7912
8105
8300
8496
8698
8897
9093
9282
9480
9680
9879
10073
10271
10459
10654
10848
11040
11234
11431
11635
11825
12019
12212
12408
12604
12807
13003
13201
13389
13583
13779
13976
14171
14367
14566
14762
14955
15143
15337
15534
15735
15927
16125
16318
16511
16704
16903
17093
17294
17496
17693
17885
18079
18271
18470
18669
18864
19059
19252
19444
19633
19832
20024
20221
20416
20613
20807
21002
21190
21386
21590
21790
21989
22182
22373
22570
22726
22951
23152
23349
23552
23742
23934
24125
24326
24524
24723
24919
25114
25303
25496
25695
25892
26090
26286
26484
26678
26879
27067
27260
27459
27660
27852
28048
28239
28432
28627
28823
29018
29214
29416
29615
29811
30003
30204
30404
30608
30799
31001
31191
31387
31584
31779
31975
32175
32376
32568
32762
32959
33151
33346
33548
33746
33943
34132
34332
34528
34726
34926
35121
35321
35520
35718
35910
36103
36302
36504
36696
36897
37085
37281
37475
37674
37869
38067
38266
38464
38659
38855
39047
39247
39446
39641
39842
40034
40228
40419
40619
40809
41005
41204
41400
41593
41788
41979
42176
42379
42581
42775
42965
43163
43359
43559
43746
43951
44156
44354
44547
44745
44938
45133
45331
45528
45728
45919
46120
46305
46505
46700
46902
47100
47294
47488
47681
47874
48072
48268
48467
48664
48860
49051
49241
49442
49628
49829
50020
50230
50417
50617
50813
51008
51208
51407
51603
51798
51993
52187
52382
52573
52774
52972
53171
53361
53558
53748
53936
54140
54334
54533
54722
54921
55113
55308
55503
55699
55893
56096
56289
56483
56674
56868
57066
57266
57444
57656
57845
58038
58237
58424
58623
58819
59022
59210
59407
59601
59794
59993
60186
60394
60587
60783
60977
61174
61369
61568
61765
61964
62156
62353
62547
62740
62936
63140
63319
63535
63725
63919
64117
64308
64502
64704
64903
65099
65291
65485
65679
65882
66082
66277
66477
66664
66858
67048
67243
67437
67631
67832
68023
68227
68421
68612
68814
69019
69214
69410
69602
69801
69997
70193
70387
70589
70785
70983
71175
71369
71554
71763
71963
72159
72361
72553
72746
72940
73139
73334
73536
73736
73936
74130
74328
74525
74720
74922
75120
75321
75510
75702
75892
76099
76290
76488
76687
76883
77074
77272
77462
77660
77860
78062
78256
78455
78653
78844
79042
79236
79434
79630
79829
80021
80216
80408
80605
80800
81000
81194
81393
81583
81779
81980
82176
82381
82577
82776
82972
83168
83357
83557
83757
83954
84151
84349
84536
84732
84931
85121
85321
85522
85720
85912
86110
86304
86501
86705
86906
87099
87295
87437
87673
87881
88076
88273
88465
88666
88857
89049
89238
89436
89634
89836
90025
90229
90421
90619
90820
91008
91209
91409
91613
91805
92001
92198
92394
92590
92784
92981
93171
93379
93569
93767
93963
94166
94361
94560
94751
94951
95144
95338
95535
95732
95924
96125
96306
96506
96687
96897
97093
97284
97489
97679
97872
98066
98262
98461
98661
98856
99057
99249
99442
99644
99826
100035
100234
100435
100635
100832
101022
101217
101417
101616
101808
102008
102186
102396
102595
102790
102991
103188
103390
103586
103787
103975
104171
104371
104581
104774
104973
105165
105364
105556
105747
105949
106131
106349
106528
106740
106938
107131
107328
107532
107729
107927
108118
108316
108507
108706
108904
109102
109301
109496
109694
109883
110074
110276
110479
110670
110871
111060
111256
111450
111630
111844
112030
112250
112447
112644
112843
113035
113232
113435
113630
113826
114017
114209
114399
114595
114794
114992
115184
115388
115585
115780
115972
116173
116375
116573
116772
116965
117155
117350
117539
117744
117940
118146
118341
118533
118727
118922
119118
119318
119514
119715
119906
120100
120293
120497
120684
120894
121095
121297
121491
121684
121881
122080
122281
122478
122680
122870
123065
123213
123453
123647
123848
124051
124248
124442
124639
124832
124996
125235
125437
125633
125827
126022
126221
126418
126613
126815
127017
127211
127403
127601
127792
127989
128195
128395
128591
128782
128979
129180
129377
129517
129762
129969
130163
130359
130555
130747
130946
131152
131347
131542
131732
131930
132121
132320
132517
132712
132915
133112
133305
133501
133696
133900
134099
134296
134451
134686
134886
135081
135281
135475
135622
135866
136063
136259
136452
136647
136849
137048
137244
137442
137634
137829
138022
138222
138416
138615
138819
139014
139209
139401
139598
139802
140002
140196
140397
140589
140784
140979
141179
141372
141573
141775
141968
142166
142366
142559
142758
142922
143161
143361
143555
143751
143947
144145
144341
144537
144736
144934
145131
145321
145514
145713
145921
146114
146313
146501
146709
146902
147098
147298
147498
147695
147891
148086
148287
148477
148674
148879
149074
149278
149464
149658
149855
150051
150244
150440
150643
150837
151033
151230
151428
151625
151828
152028
152225
152415
152613
152811
153004
153197
153397
153597
153791
153986
154185
154377
154574
154777
154978
155173
155367
155567
155760
155955
156154
156355
156554
156752
156950
157145
157332
157528
157731
157932
158124
158287
158509
158708
158905
159094
159292
159492
159677
159889
160084
160279
160477
160676
160874
161073
161266
161458
161651
161848
162037
162238
162432
162634
162823
163024
163219
163413
163612
163816
164016
164209
164402
164605
164800
164993
165194
165395
165590
165793
165990
166178
166374
166583
166778
166979
167171
167371
167548
167761
167954
168158
168357
168561
168758
168949
169141
169337
169546
169748
169943
170137
170333
170526
170712
170922
171116
171320
171515
171720
171914
172102
172304
172513
172714
172911
173104
173304
173489
173698
173888
174093
174290
174496
174689
174881
175077
175282
175483
175681
175881
176071
176267
176462
176653
176861
177047
177266
177452
177664
177857
178050
178251
178456
178654
178847
179038
179233
179430
179622
179815
180017
180213
180414
180608
180806
181002
181202
181405
181600
181804
181994
182182
182383
182569
182781
182981
183181
183372
183567
183759
183956
184151
184354
184534
184749
184920
185137
185334
185528
185724
185924
186130
186324
186515
186713
186908
187106
187314
187505
187702
187892
188083
188279
188469
188674
188874
189070
189263
189458
189655
189850
190048
190256
190451
190661
190850
191045
191242
191441
191634
191827
192026
192226
192420
192611
192804
193008
193210
193401
193598
193793
193989
194182
194383
194576
194772
194981
195178
195375
195571
195770
195971
196170
196365
196564
196760
196953
197145
197348
197539
197739
197932
198140
198339
198532
198730
198928
199133
199300
199530
199722
199918
200116
200310
200503
200689
200906
201100
201293
201490
201687
201881
202083
202281
202481
202673
202868
203068
203270
203465
203663
203858
204062
204241
204455
204656
204855
205056
205249
205453
205643
205837
206022
206231
206425
206623
206822
207025
207222
207415
207615
207812
208015
208212
208417
208603
208798
208995
209193
209388
209585
209788
209982
210176
210370
210566
210766
210967
211166
211369
211560
211756
211950
212151
212354
212524
212752
212947
213149
213338
213533
213735
213939
214130
214326
214519
214717
214916
215109
215308
215512
215716
215910
216108
216307
216504
216703
216902
217099
217305
217499
217688
217885
218080
218284
218482
218684
218877
219082
219271
219468
219675
219871
220070
220257
220470
220664
220867
221056
221258
221460
221656
221849
222047
222238
222435
222632
222837
223032
223229
223427
223618
223816
224010
224217
224412
224612
224809
224995
225207
225386
225606
225795
226013
226206
226398
226593
226798
226985
227184
227383
227590
227781
227975
228156
228372
228575
228778
228979
229134
229370
229564
229767
229963
230163
230363
230566
230760
230950
231150
231334
231556
231756
231905
232142
232341
232535
232740
232937
233134
233338
233540
233707
233928
234128
234329
234532
234730
234931
235121
235320
235514
235715
235910
236108
236314
236513
236710
236905
237106
237307
237508
237706
237906
238102
238304
238503
238701
238898
239104
239307
239504
239700
239897
240093
240292
240497
240696
240894
241084
241281
241485
241681
241880
242080
242287
242484
242680
242875
243076
243278
243480
243677
243879
244069
244264
244468
244662
244862
245062
245269
245461
245658
245855
246052
246254
246460
246660
246858
247050
247251
247450
247644
247848
248046
248247
248441
248641
248833
249030
249237
249439
249635
249835
250031
250224
250424
250620
250829
251029
251228
251426
251628
251820
252018
252226
252429
252625
252816
253015
253208
253409
253604
253803
254001
254200
254399
254593
254789
254996
255201
255399
255599
255795
255992
256185
256387
256581
256782
256988
257180
257378
257576
257771
257970
258174
258375
258573
258766
258968
259164
259363
259565
259765
259974
260172
260371
260567
260763
260964
261172
261364
261562
261757
261952
262151
262347
262538
262748
262956
263154
263351
263551
263749
263952
264159
264354
264553
264749
264943
265147
265341
265547
265741
265944
266138
266335
266530
266727
266938
267138
267335
267536
267739
267937
268137
268336
268535
268737
268941
269136
269331
269527
269728
269930
270130
270334
270525
270723
270920
271116
271314
271518
271723
271919
272119
272317
272511
272716
272923
273120
273323
273516
273714
273909
274109
274308
274505
274708
274907
275106
275299
275496
275700
275908
276102
276309
276503
276702
276909
277100
277302
277508
277711
277904
278102
278298
278494
278698
278900
279097
279290
279496
279686
279891
280087
280292
280489
280697
280901
281098
281290
281489
281697
281901
282092
282293
282478
282685
282880
283076
283280
283480
283681
283874
284077
284270
284467
284672
284875
285077
285273
285468
285662
285874
286062
286268
286454
286673
286863
287063
287256
287460
287662
287857
288059
288254
288450
288643
288845
289035
289234
289440
289629
289841
290037
290234
290432
290634
290833
291039
291230
291423
291607
291815
292011
292210
292415
292609
292804
293002
293201
293397
293602
293804
294006
294194
294392
294591
294783
294981
295174
295383
295567
295785
295970
296174
296385
296582
296777
296974
297171
297373
297569
297764
297966
298175
298372
298573
298770
298969
299175
299373
299577
299774
299979
300169
300356
300567
300757
300963
301162
301372
301575
301768
301960
302165
302376
302577
302774
302971
303172
303367
303564
303764
303971
304171
304362
304567
304767
304964
305164
305375
305525
305767
305955
306163
306367
306563
306765
306966
307176
307372
307570
307768
307969
308170
308371
308574
308762
308967
309159
309371
309567
309772
309969
310175
310373
310571
310764
310966
311175
311382
311578
311782
311979
312177
312378
312576
312778
312976
313177
313375
313570
313762
313965
314173
314375
314572
314762
314962
315143
315361
315564
315770
315972
316171
316372
316572
316766
316968
317174
317370
317570
317763
317964
318168
318311
318424
318749
318963
319157
319357
319552
319754
319952
320162
320357
320555
320747
320949
321145
321339
321540
321734
321932
322131
322322
322718
322927
323131
323324
323525
323723
323918
324119
324318
324518
324702
324920
325120
325315
325510
325711
325912
326113
326307
326515
326705
326895
327099
327302
327503
327701
327914
328107
328308
328507
328705
328911
329119
329318
329511
329714
329913
330116
330311
330516
330715
330921
331116
331314
331512
331717
331878
332118
332309
332522
332725
332864
333109
333314
333520
333724
333921
334127
334319
334516
334721
334925
335125
335329
335517
335717
335922
336121
336319
336520
336734
336929
337129
337326
337530
337734
337939
338136
338332
338532
338732
338935
339126
339329
339536
339735
339893
340131
340331
340531
340738
340944
341144
341341
341546
341742
341944
342145
342344
342550
342753
342950
343144
343344
343545
343751
343950
344151
344342
344538
344742
344936
345136
345341
345549
345745
345946
346144
346342
346545
346753
346951
347151
347346
347544
347743
347937
348143
348347
348546
348739
348936
349130
349325
349535
349743
349943
350138
350336
350534
350736
350937
351140
351340
351539
351735
351930
352121
352317
352524
352721
352918
353111
353310
353503
353700
353896
354100
354304
354499
354701
354897
355090
355291
355496
355693
355892
356085
356280
356473
356672
356868
357069
357274
357472
357672
357862
358059
358261
358471
358664
358868
359060
359257
359450
359643
359842
360040
360242
360392
360627
360819
361011
361206
361411
361610
361807
361998
362191
362386
362587
362781
362980
363185
363387
363585
363779
363978
364182
364388
364585
364789
364984
365179
365378
365580
365779
365981
366186
366390
366590
366785
366990
367200
367405
367604
367811
368008
368205
368408
368612
368817
369015
369222
369422
369620
369815
370018
370230
370430
370632
370832
371032
371232
371438
371640
371842
372050
372256
372456
372651
372852
373063
373268
373467
373676
373869
374067
374271
374472
374674
374876
375086
375283
375480
375682
375891
376102
376287
376506
376691
376907
377091
377311
377494
377715
377918
378115
378314
378513
378703
378910
379118
379314
379480
379668
379901
380124
380308
380524
380732
380932
381122
381329
381516
381729
381924
382131
382315
382483
382715
382911
383121
383312
383514
383717
383917
384127
384322
384521
384719
384932
385134
385336
385534
385730
385925
386131
386322
386525
386729
386930
387125
387325
387524
387727
387931
388135
388334
388528
388728
388874
388995
389323
389534
389739
389938
390131
390335
390536
390733
390939
391140
391344
391532
391731
391937
392135
392335
392538
392746
392931
393140
393344
393543
393749
393955
394157
394353
394553
394753
394950
395146
395355
395554
395755
395956
396150
396352
396539
396767
396965
397174
397367
397570
397767
397970
398173
398370
398577
398776
398976
399168
399368
399575
399775
399972
400176
400375
400571
400772
400970
401171
401373
401583
401783
401984
402178
402386
402573
402792
402989
403194
403391
403589
403792
403987
404192
404398
404598
404798
405000
405193
405386
405604
405806
406007
406203
406406
406605
406807
407009
407215
407417
407617
407824
408014
408215
408419
408623
408820
409022
409220
409419
409625
409820
410024
410226
410436
410637
410835
411032
411236
411446
411648
411849
412049
412230
412449
412654
412851
413056
413256
413459
413663
413859
414054
414261
414472
414663
414872
415074
415276
415472
415671
415881
416080
416291
416487
416687
416883
417087
417292
417486
417697
417902
418092
418294
418500
418648
418896
419104
419307
419505
419705
419902
420104
420311
420514
420717
420907
421110
421308
421505
421703
421907
422114
422310
422513
422709
422905
423110
423320
423518
423722
423924
424117
424308
424522
424726
424928
425136
425327
425531
425713
425923
426131
426330
426541
426736
426932
427132
427341
427534
427737
427947
428152
428351
428547
428736
428956
429162
429365
429570
429761
429960
430161
430362
430563
430766
430975
431167
431372
431571
431779
431983
432191
432396
432602
432797
432992
433202
433398
433601
433804
434013
434208
434406
434605
434811
435017
435221
435427
435623
435822
436023
436224
436425
436631
436846
437041
437238
437440
437645
437848
438056
438258
438460
438651
438853
439059
439253
439460
439664
439867
440064
440267
440470
440673
440882
441088
441299
441492
441695
441900
442104
442300
442504
442715
442912
443110
443312
443516
443720
443925
444129
444336
444532
444732
444939
445142
445347
445553
445764
445960
446165
446364
446570
446772
446977
447182
447384
447578
447775
447986
448185
448389
448594
448802
449004
449201
449404
449615
449829
450026
450229
450429
450635
450835
451031
451239
451447
451649
451847
452054
452256
452459
452661
452870
453078
453277
453478
453686
453890
454087
454295
454508
454715
454914
455110
455316
455525
455733
455930
456136
456338
456541
456742
456942
457154
457357
457563
457759
457970
458174
458375
458589
458795
458996
459193
459392
459600
459805
460003
460204
460416
460620
460822
461019
461226
461435
461641
461841
462052
462255
462455
462659
462864
463071
463275
463485
463689
463888
464086
464297
464508
464703
464910
465113
465316
465514
465717
465927
466129
466336
466536
466749
466949
467149
467353
467569
467775
467974
468176
468372
468579
468780
468982
469187
469392
469600
469795
469994
470202
470420
470620
470821
471020
471231
471438
471632
471839
472053
472258
472456
472662
472863
473064
473267
473475
473683
473881
474073
474283
474489
474690
474896
475109
475311
475512
475707
475917
476127
476337
476536
476747
476948
477145
477348
477540
477758
477963
478167
478371
478574
478771
478975
479189
479395
479600
479797
480001
480207
480405
480612
480803
481032
481228
481435
481635
481827
482032
482245
482446
482650
482839
483044
483241
483457
483654
483864
484073
484280
484477
484677
484879
485097
485291
485496
485690
485901
486093
486293
486484
486707
486911
487111
487316
487516
487713
487918
488134
488336
488536
488734
488937
489138
489336
489545
489749
489945
490149
490358
490553
490755
490962
491170
491369
491566
491774
491975
492171
492375
492588
492798
492995
493199
493402
493599
493802
494015
494219
494418
494613
494811
495020
495216
495418
495623
495816
496030
496231
496427
496632
496843
497047
497254
497451
497654
497854
498061
498261
498464
498673
498877
499071
499266
499473
499676
499883
500087
500283
500489
500677
500896
501099
501309
501511
501715
501920
502122
502319
502520
502735
502941
503140
503333
503537
503740
503932
504143
504323
504558
504759
504964
505162
505366
505572
505779
505983
506187
506381
506584
506788
506987
507195
507401
507610
507804
508004
508204
508413
508621
508820
509026
509208
509427
509627
509833
510044
510240
510445
510649
510858
511050
511249
511460
511664
511866
512068
512264
512470
512676
512874
513073
513281
513488
513687
513891
514076
514299
514503
514708
514922
515110
515313
515516
515720
515921
516124
516333
516529
516733
516932
517131
517335
517547
517751
517949
518145
518287
518542
518743
518955
519167
519367
519565
519767
519969
520172
520381
520568
520789
520984
521186
521393
521590
521792
522000
522206
522403
522608
522815
523016
523221
523431
523634
523837
524037
524245
524447
524644
524854
524999
525250
525451
525660
525862
526063
526276
526483
526685
526881
527089
527296
527492
527696
527904
528118
528315
528521
528725
528925
529121
529336
529545
529747
529941
530137
530342
530550
530761
530962
531167
531374
531581
531779
531982
532198
532406
532611
532800
533012
533219
533416
533617
533824
534039
534231
534434
534636
534845
535050
535253
535459
535647
535873
536008
536133
536466
536682
536885
537088
537297
537493
537687
537893
538106
538305
538507
538705
538907
539109
539307
539516
539723
539930
540132
540339
540536
540744
540959
541160
541364
541569
541770
541967
542173
542373
542577
542785
542986
543193
543387
543590
543799
544007
544215
544419
544619
544825
545032
545229
545436
545648
545852
546055
546257
546459
546660
546872
547078
547281
547476
547682
547891
548086
548293
548506
548718
548916
549122
549329
549533
549740
549950
550160
550359
550556
550753
550962
551170
551369
551575
551782
551991
552186
552384
552590
552809
553016
553217
553413
553615
553831
554035
554238
554442
554652
554860
555059
555255
555466
555679
555877
556081
556282
556490
556688
556893
557102
557306
557519
557725
557927
558122
558330
558546
558751
558956
559156
559362
559562
559764
559963
560172
560384
560583
560784
560984
561194
561406
561614
561821
562028
562226
562425
562629
562835
563046
563188
563318
563556
563797
563994
564199
564413
564622
564825
565022
565219
565420
565633
565834
566037
566243
566452
566652
566855
567054
567264
567481
567681
567881
568082
568285
568487
568687
568897
569099
569306
569511
569718
569914
570117
570331
570543
570744
570944
571146
571353
571557
571758
571970
572164
572374
572578
572785
572986
573187
573396
573601
573811
574010
574209
574414
574620
574835
575036
575242
575440
575646
575852
576058
576266
576465
576676
576880
577080
577275
577482
577689
577898
578095
578304
578498
578721
578921
579128
579345
579552
579747
579946
580147
580364
580558
580764
580967
581180
581384
581580
581779
581996
582208
582407
582607
582814
583011
583222
583422
583627
583834
584047
584242
584442
584636
584762
585068
585269
585472
585677
585882
586077
586275
586493
586697
586901
587082
587313
587511
587714
587927
588137
588336
588533
588732
588933
589147
589341
589542
589730
589961
590168
590362
590562
590775
590985
591160
591385
591590
591786
591988
592191
592402
592591
592809
593014
593211
593410
593617
593824
594024
594228
594429
594626
594826
595036
595234
595435
595639
595850
596051
596249
596450
596665
596872
597072
597275
597478
597685
597884
598081
598293
598500
598701
598850
599093
599295
599500
599715
599921
600124
600323
600531
600733
600934
601137
601348
601559
601758
601963
602167
602363
602566
602780
602986
603187
603365
603578
603786
603992
604200
604400
604605
604808
605017
605220
605425
605637
605844
606049
606232
606456
606644
606858
607070
607272
607477
607677
607889
608083
608288
608500
608703
608908
609094
609321
609520
609728
609913
610136
610343
610549
610758
610950
611149
611360
611572
611767
611970
612170
612380
612579
612762
612986
613199
613408
613601
613788
614019
614223
614432
614641
614843
615045
615249
615445
615650
615852
616061
616261
616454
616670
616866
617071
617283
617496
617694
617900
618103
618301
618507
618707
618919
619121
619329
619531
619729
619929
620124
620351
620553
620757
620958
621163
621367
621563
621771
621981
622190
622388
622592
622798
622986
623211
623415
623623
623831
624027
624224
624430
624634
624836
625042
625247
625448
625648
625850
626058
626273
626473
626678
626883
627087
627290
627484
627703
627912
628118
628322
628522
628722
628932
629139
629346
629555
629748
629955
630160
630314
630561
630773
630981
631181
631390
631591
631793
632005
632215
632417
632620
632821
633023
633221
633438
633644
633850
634055
634263
634456
634661
634869
635077
635282
635495
635693
635892
636085
636304
636518
636721
636923
637129
637329
637525
637729
637943
638147
638351
638537
638756
638963
639161
639366
639582
639792
639992
640199
640399
640602
640811
641025
641230
641427
641630
641832
642033
642232
642443
642655
642853
643054
643255
643450
643668
643879
644085
644294
644488
644686
644899
645103
645309
645511
645720
645922
646118
646316
646527
646740
646937
647145
647345
647544
647747
647951
648162
648365
648516
648761
648972
649173
649372
649575
649788
