91
249
474
670
869
1070
1268
1463
1651
1844
2043
2233
2428
2627
2829
3018
3215
3405
3600
3801
4004
4197
4396
4588
4781
4974
5168
5370
5568
5768
5958
6153
6345
6539
6739
6939
7132
7330
7519
7712
7910
8104
8299
8495
8696
8894
9092
9282
9477
9678
9879
10072
10269
10459
10654
10845
11039
11233
11429
11632
11824
12018
12210
12406
12603
12805
13001
13200
13388
13582
13776
13973
14169
14366
14563
14759
14953
15143
15334
15532
15733
15926
16123
16316
16509
16702
16902
17092
17292
17494
17691
17882
18077
18269
18466
18667
18863
19058
19249
19442
19632
19830
20022
20219
20415
20612
20804
21000
21189
21384
21587
21792
21986
22181
22371
22567
22724
22949
23151
23347
23549
23740
23933
24122
24323
24522
24722
24915
25112
25301
25495
25691
25889
26088
26284
26482
26675
26876
27065
27258
27456
27657
27851
28045
28236
28431
28626
28820
29016
29213
29413
29613
29809
30002
30201
30402
30607
30798
30998
31190
31387
31581
31778
31974
32172
32373
32566
32761
32955
33149
33345
33546
33743
33942
34129
34330
34527
34725
34923
35120
35320
35519
35716
35910
36101
36301
36504
36694
36895
37085
37280
37474
37672
37868
38067
38265
38462
38658
38854
39046
39244
39444
39640
39843
40032
40227
40417
40618
40808
41003
41201
41399
41592
41787
41978
42175
42377
42582
42774
42962
43161
43354
43557
43732
43948
44147
44352
44543
44743
44938
45131
45330
45527
45727
45916
46119
46303
46505
46698
46903
47097
47295
47486
47677
47871
48071
48266
48465
48661
48859
49049
49237
49440
49624
49828
50007
50227
50413
50615
50809
51007
51206
51404
51602
51797
51992
52184
52382
52571
52769
52969
53171
53358
53553
53747
53930
54136
54326
54531
54713
54918
55112
55305
55503
55697
55894
56094
56288
56481
56670
56866
57061
57265
57434
57654
57842
58037
58238
58423
58624
58817
59022
59209
59407
59598
59791
59991
60176
60391
60578
60780
60974
61172
61370
61564
61762
61962
62154
62351
62546
62737
62931
63139
63303
63532
63724
63916
64118
64307
64503
64702
64898
65096
65286
65484
65674
65880
66083
66275
66474
66663
66857
67046
67241
67434
67627
67830
68017
68225
68420
68612
68808
69016
69214
69408
69601
69798
69995
70191
70383
70586
70785
70981
71169
71367
71543
71759
71957
72156
72359
72551
72745
72936
73134
73330
73526
73731
73927
74127
74326
74520
74717
74919
75116
75316
75505
75699
75876
76095
76288
76482
76681
76880
77071
77269
77462
77657
77848
78060
78246
78451
78651
78842
79042
79233
79433
79628
79828
80018
80215
80405
80605
80800
80996
81197
81393
81581
81780
81979
82172
82378
82572
82774
82970
83167
83353
83554
83758
83954
84151
84347
84532
84729
84925
85120
85315
85520
85719
85910
86109
86303
86499
86703
86907
87097
87286
87438
87675
87879
88074
88272
88464
88663
88855
89048
89239
89433
89628
89835
90015
90227
90421
90616
90817
91007
91208
91405
91612
91803
91995
92196
92393
92588
92779
92980
93164
93375
93568
93766
93961
94163
94359
94559
94750
94948
95141
95337
95534
95732
95920
96124
96299
96505
96673
96896
97093
97283
97487
97678
97873
98064
98261
98460
98661
98854
99056
99248
99439
99642
99815
100033
100233
100433
100633
100830
101021
101216
101413
101614
101802
102006
102170
102394
102593
102787
102987
103186
103388
103583
103785
103974
104169
104368
104578
104772
104971
105162
105360
105554
105740
105944
106115
106346
106512
106736
106938
107128
107326
107528
107725
107925
108117
108313
108500
108704
108891
109098
109299
109494
109691
109881
110072
110273
110477
110669
110868
111058
111254
111448
111622
111840
112015
112247
112445
112640
112840
113033
113230
113432
113627
113824
114014
114207
114397
114593
114787
114989
115170
115385
115577
115778
115970
116170
116372
116572
116770
116963
117151
117348
117525
117741
117936
118143
118339
118532
118725
118919
119116
119317
119512
119712
119905
120098
120292
120494
120673
120893
121093
121294
121489
121684
121879
122078
122279
122477
122677
122869
123064
123210
123451
123646
123846
124049
124247
124441
124637
124831
124995
125232
125436
125632
125827
126021
126219
126418
126612
126813
127015
127210
127402
127600
127792
127989
128193
128393
128590
128782
128977
129178
129377
129513
129760
129967
130163
130358
130554
130746
130946
131149
131346
131542
131731
131929
132120
132318
132514
132712
132913
133110
133304
133500
133693
133898
134098
134294
134449
134684
134885
135078
135278
135473
135620
135863
136061
136257
136451
136643
136846
137046
137243
137439
137632
137828
138020
138220
138414
138613
138816
139012
139207
139399
139595
139799
140000
140194
140395
140587
140783
140976
141177
141370
141570
141771
141966
142164
142363
142557
142756
142919
143158
143359
143552
143748
143945
144142
144338
144535
144734
144932
145129
145319
145513
145710
145918
146113
146311
146499
146706
146900
147097
147294
147496
147693
147889
148084
148284
148475
148672
148877
149071
149274
149463
149656
149851
150049
150242
150438
150640
150836
151032
151228
151425
151624
151827
152025
152224
152414
152612
152808
153003
153196
153394
153595
153790
153985
154183
154375
154573
154775
154976
155172
155366
155564
155758
155957
156151
156353
156553
156751
156947
157143
157330
157527
157727
157930
158123
158286
158507
158706
158903
159093
159291
159491
159661
159887
160083
160277
160475
160675
160873
161071
161265
161456
161651
161846
162036
162235
162424
162632
162816
163021
163216
163411
163605
163814
164013
164209
164397
164603
164796
164992
165181
165393
165581
165790
165989
166176
166370
166580
166775
166977
167164
167369
167534
167758
167944
168156
168351
168558
168757
168947
169141
169335
169544
169745
169932
170134
170326
170523
170700
170918
171107
171318
171507
171716
171913
172100
172298
172509
172714
172909
173100
173302
173481
173695
173881
174092
174278
174493
174688
174879
175075
175280
175481
175679
175882
176069
176263
176461
176647
176859
177031
177264
177443
177661
177853
178049
178253
178454
178653
178845
179039
179231
179426
179621
179806
180014
180202
180412
180604
180804
181002
181201
181404
181599
181802
181993
182180
182382
182558
182780
182980
183178
183371
183566
183757
183954
184150
184353
184533
184748
184905
185135
185333
185527
185717
185921
186129
186323
186509
186711
186908
187104
187313
187503
187702
187890
188078
188278
188465
188670
188873
189068
189262
189455
189650
189848
190045
190254
190444
190657
190851
191043
191242
191438
191633
191825
192014
192223
192419
192609
192793
193005
193210
193399
193595
193789
193988
194178
194381
194574
194762
194977
195169
195373
195567
195766
195969
196167
196363
196561
196758
196951
197141
197346
197532
197736
197919
198138
198338
198529
198727
198926
199131
199298
199527
199720
199915
200113
200309
200501
200673
200902
201098
201291
201487
201684
201879
202082
202278
202479
202672
202867
203064
203268
203463
203663
203846
204060
204222
204452
204652
204852
205055
205247
205450
205641
205835
206009
206228
206422
206622
206807
207024
207220
207412
207615
207810
208015
208208
208414
208602
208796
208992
209192
209386
209583
209784
209981
210175
210371
210564
210765
210967
211167
211367
211558
211755
211946
212149
212351
212523
212752
212945
213148
213337
213533
213732
213937
214128
214321
214516
214714
214914
215109
215306
215505
215714
215909
216106
216305
216502
216703
216901
217094
217303
217497
217687
217884
218077
218281
218480
218683
218882
219080
219270
219461
219672
219865
220068
220242
220467
220663
220864
221054
221255
221456
221655
221846
222045
222236
222433
222619
222835
223030
223228
223426
223616
223815
224006
224215
224410
224606
224806
224980
225204
225370
225603
225777
226010
226204
226396
226590
226795
226983
227182
227380
227587
227780
227972
228144
228367
228561
228776
228977
229130
229367
229562
229764
229960
230160
230360
230563
230757
230940
231146
231326
231553
231754
231901
232139
232339
232532
232737
232934
233132
233334
233538
233705
233925
234124
234326
234530
234727
234928
235119
235317
235510
235712
235907
236106
236310
236510
236708
236903
237102
237304
237505
237704
237904
238100
238302
238501
238700
238895
239101
239305
239502
239697
239895
240091
240290
240496
240693
240892
241083
241280
241481
241680
241878
242079
242284
242482
242679
242874
243074
243276
243479
243674
243878
244068
244262
244465
244661
244861
245059
245266
245461
245658
245853
246051
246253
246458
246659
246857
247048
247249
247449
247642
247846
248044
248246
248438
248639
248831
249029
249233
249436
249634
249833
250028
250223
250422
250618
250826
251027
251226
251422
251625
251818
252016
252222
252425
252623
252814
253011
253206
253406
253600
253801
253999
254198
254396
254592
254787
254993
255199
255397
255596
255793
255991
256183
256385
256580
256780
256985
257179
257376
257573
257769
257968
258171
258373
258572
258764
258966
259162
259362
259563
259763
259970
260170
260369
260565
260762
260962
261170
261362
261560
261755
261950
262150
262344
262536
262747
262953
263152
263349
263548
263747
263950
264156
264353
264552
264746
264941
265145
265338
265545
265741
265943
266137
266333
266528
266726
266935
267136
267334
267533
267736
267935
268136
268333
268534
268736
268939
269134
269330
269525
269726
269929
270128
270332
270525
270721
270918
271116
271312
271516
271721
271919
272117
272316
272506
272714
272922
273120
273321
273515
273714
273908
274108
274306
274504
274706
274903
275104
275297
275494
275696
275907
276096
276307
276502
276700
276908
277099
277302
277505
277709
277901
278095
278296
278489
278696
278894
279096
279283
279493
279681
279890
280081
280290
280483
280694
280898
281096
281285
281486
281689
281899
282085
282291
282465
282683
282868
283073
283273
283477
283680
283871
284075
284267
284465
284670
284872
285074
285270
285467
285653
285871
286052
286267
286439
286670
286854
287062
287250
287457
287661
287856
288056
288252
288447
288641
288844
289033
289227
289437
289614
289838
290035
290232
290430
290632
290830
291036
291227
291421
291593
291813
292009
292207
292409
292607
292795
293000
293198
293395
293603
293801
294007
294193
294388
294588
294780
294979
295158
295381
295550
295783
295966
296171
296384
296580
296775
296974
297168
297371
297567
297763
297958
298171
298359
298572
298764
298967
299173
299371
299578
299772
299978
300167
300352
300564
300752
300962
301156
301370
301577
301766
301960
302163
302374
302576
302773
302970
303170
303365
303563
303762
303969
304170
304358
304565
304765
304962
305163
305371
305523
305766
305945
306160
306364
306561
306763
306963
307173
307370
307568
307765
307969
308167
308359
308571
308746
308965
309151
309368
309564
309769
309966
310172
310370
310568
310761
310963
311169
311379
311560
311779
311972
312174
312375
312572
312775
312974
313174
313371
313567
313760
313961
314167
314375
314570
314761
314960
315124
315359
315560
315767
315969
316169
316364
316569
316763
316965
317171
317367
317567
317760
317963
318164
318320
318414
318746
318958
319155
319355
319551
319751
319942
320157
320355
320553
320745
320946
321142
321337
321537
321731
321921
322129
322310
322503
322712
322922
323128
323323
323522
323720
323918
324117
324315
324515
324690
324917
325117
325312
325509
325709
325910
326112
326305
326512
326705
326897
327089
327299
327493
327699
327913
328106
328306
328504
328704
328909
329118
329316
329504
329711
329909
330114
330313
330514
330715
330919
331115
331314
331511
331716
331877
332116
332291
332522
332724
332860
333108
333312
333519
333723
333920
334125
334319
334514
334720
334924
335123
335328
335516
335717
335919
336120
336318
336518
336731
336928
337129
337324
337529
337733
337937
338135
338332
338531
338729
338933
339125
339328
339534
339734
339892
340128
340329
340529
340735
340941
341142
341339
341544
341740
341942
342143
342343
342547
342750
342948
343142
343340
343543
343750
343947
344149
344340
344536
344739
344935
345135
345338
345547
345744
345944
346142
346340
346544
346750
346949
347150
347343
347541
347742
347936
348140
348344
348544
348737
348936
349109
349323
349534
349740
349939
350135
350333
350531
350731
350929
351134
351336
351537
351729
351927
352119
352315
352519
352718
352916
353109
353307
353500
353698
353893
354098
354302
354498
354698
354895
355088
355289
355494
355690
355890
356082
356277
356470
356669
356865
357066
357271
357469
357670
357861
358056
358256
358468
358664
358858
359058
359252
359447
359642
359839
360039
360239
360388
360627
360816
361010
361204
361407
361606
361806
361997
362190
362383
362585
362780
362979
363181
363385
363583
363777
363974
364179
364387
364585
364785
364981
365178
365376
365577
365777
365980
366185
366387
366588
366784
366987
367198
367405
367603
367809
368006
368204
368406
368610
368816
369013
369219
369419
369619
369814
370015
370227
370429
370630
370829
371030
371230
371434
371637
371840
372047
372252
372453
372649
372848
373059
373266
373464
373672
373866
374066
374267
374469
374672
374874
375087
375279
375476
375680
375887
376096
376269
376502
376676
376905
377071
377308
377478
377712
377910
378112
378306
378510
378695
378907
379117
379309
379481
379668
379887
380120
380297
380520
380729
380929
381117
381326
381503
381726
381913
382129
382300
382481
382712
382909
383118
383310
383511
383715
383907
384124
384318
384518
384708
384930
385125
385332
385531
385728
385917
386130
386313
386522
386715
386927
387117
387321
387519
387725
387925
388132
388332
388527
388726
388869
389007
389320
389532
389737
389935
390127
390332
390533
390732
390938
391136
391341
391530
391729
391934
392134
392334
392538
392744
392917
393137
393342
393541
393748
393952
394155
394352
394550
394750
394949
395145
395352
395552
395754
395953
396139
396350
396522
396764
396961
397171
397365
397568
397768
397967
398170
398369
398573
398773
398973
399166
399368
399571
399764
399969
400172
400371
400569
400769
400966
401169
401371
401579
401779
401982
402172
402383
402558
402788
402977
403192
403387
403586
403791
403985
404189
404394
404596
404795
404999
405191
405373
405601
405803
406004
406199
406404
406596
406805
407003
407212
407415
407614
407822
408012
408211
408415
408619
408816
409015
409218
409416
409621
409818
410022
410224
410433
410635
410833
411031
411233
411444
411646
411844
412048
412213
412446
412652
412847
413054
413254
413457
413660
413857
414052
414259
414469
414656
414870
415072
415274
415470
415669
415878
416079
416289
416486
416686
416881
417087
417290
417475
417696
417900
418092
418294
418498
418638
418894
419100
419306
419504
419702
419901
420103
420311
420512
420717
420907
421110
421307
421504
421700
421902
422112
422310
422511
422709
422903
423109
423318
423518
423720
423922
424117
424296
424520
424727
424925
425135
425326
425531
425711
425919
426130
426317
426539
426737
426931
427130
427339
427532
427736
427943
428150
428351
428544
428717
428953
429160
429362
429566
429759
429958
430157
430359
430561
430765
430971
431163
431369
431567
431775
431980
432189
432391
432599
432793
432990
433198
433394
433598
433800
434010
434206
434404
434601
434807
435014
435217
435424
435621
435820
436019
436222
436422
436627
436841
437038
437236
437437
437642
437846
438053
438255
438458
438650
438850
439056
439251
439457
439660
439864
440062
440264
440467
440670
440879
441085
441295
441490
441693
441895
442101
442298
442500
442712
442910
443107
443308
443512
443717
443923
444125
444333
444529
444730
444935
445139
445345
445549
445760
445957
446164
446362
446568
446770
446976
447180
447382
447576
447774
447984
448184
448387
448592
448801
449003
449200
449402
449612
449827
450025
450228
450427
450632
450833
451030
451236
451445
451648
451845
452051
452254
452457
452660
452867
453075
453276
453476
453684
453889
454086
454293
454505
454714
454913
455109
455313
455523
455731
455928
456133
456336
456539
456740
456939
457151
457355
457561
457757
457966
458171
458374
458585
458792
458993
459191
459390
459595
459802
460000
460202
460412
460618
460820
461017
461222
461433
461639
461838
462050
462252
462453
462656
462861
463069
463273
463482
463685
463886
464083
464293
464504
464701
464907
465110
465314
465512
465713
465923
466126
466334
466532
466745
466946
467146
467350
467564
467772
467971
468174
468369
468575
468778
468979
469185
469388
469597
469792
469991
470198
470416
470617
470818
471017
471228
471434
471629
471836
472048
472255
472454
472657
472859
473061
473264
473470
473680
473878
474070
474279
474486
474687
474892
475105
475309
475509
475705
475913
476124
476334
476535
476743
476945
477145
477345
477537
477756
477950
478165
478370
478571
478764
478973
479189
479392
479595
479795
479997
480203
480399
480610
480784
481028
481227
481431
481633
481825
482025
482242
482439
482649
482831
483043
483223
483454
483646
483861
484062
484279
484473
484675
484874
485094
485287
485494
485688
485899
486087
486291
486465
486704
486903
487108
487305
487513
487709
487915
488132
488333
488534
488729
488930
489135
489325
489541
489731
489942
490141
490354
490551
490752
490959
491167
491367
491564
491773
491972
492158
492372
492584
492795
492993
493195
493401
493597
493800
494010
494215
494416
494610
494808
495016
495213
495417
495618
495795
496026
496228
496423
496624
496840
497029
497250
497446
497651
497855
498057
498258
498462
498669
498874
499070
499264
499472
499673
499870
500084
500265
500487
500660
500892
501091
501306
501508
501712
501915
502120
502316
502517
502731
502938
503140
503331
503534
503737
503923
504133
504303
504554
504757
504956
505160
505363
505572
505776
505979
506185
506372
506582
506778
506985
507196
507398
507608
507802
508003
508202
508413
508619
508813
509023
509193
509425
509626
509830
510044
510238
510439
510646
510851
511048
511244
511456
511657
511864
512067
512261
512470
512673
512867
513071
513280
513486
513686
513878
514060
514297
514495
514705
514920
515108
515312
515512
515717
515919
516122
516329
516527
516731
516928
517128
517334
517542
517746
517946
518135
518278
518537
518740
518951
519163
519364
519563
519763
519965
520171
520377
520552
520786
520981
521182
521388
521587
521789
521995
522203
522400
522604
522811
523013
523217
523424
523630
523834
524032
524242
524444
524643
524848
524989
525248
525443
525657
525856
526060
526275
526480
526682
526879
527086
527293
527490
527694
527901
528115
528314
528518
528722
528921
529113
529333
529540
529744
529938
530135
530340
530546
530757
530959
531165
531369
531578
531776
531977
532193
532403
532608
532795
533008
533216
533414
533615
533820
534036
534229
534433
534632
534842
535048
535252
535455
535632
535871
536016
536132
536462
536679
536883
537086
537294
537491
537685
537890
538103
538303
538505
538702
538905
539107
539306
539512
539721
539929
540129
540336
540535
540742
540957
541160
541363
541568
541769
541967
542172
542372
542577
542785
542984
543191
543386
543588
543797
544006
544212
544417
544617
544823
545030
545227
545434
545644
545850
546053
546253
546456
546658
546868
547075
547278
547475
547679
547888
548084
548291
548502
548715
548914
549119
549326
549531
549738
549946
550156
550357
550553
550750
550959
551166
551367
551573
551777
551986
552183
552381
552587
552804
553011
553214
553409
553612
553826
554030
554235
554439
554648
554855
555056
555252
555460
555675
555873
556078
556277
556486
556685
556889
557098
557302
557514
557720
557923
558119
558325
558541
558748
558952
559153
559356
559558
559760
559961
560167
560380
560580
560781
560981
561189
561403
561612
561817
562026
562223
562422
562627
562831
563044
563192
563312
563552
563793
563991
564196
564408
564618
564822
565020
565217
565416
565630
565832
566034
566240
566449
566649
566853
567052
567260
567478
567679
567880
568078
568283
568485
568684
568894
569096
569305
569507
569715
569912
570115
570327
570541
570743
570943
571143
571350
571555
571757
571967
572167
572372
572575
572782
572986
573185
573395
573597
573809
574008
574207
574413
574617
574832
575033
575241
575439
575642
575848
576056
576263
576464
576672
576880
577078
577268
577479
577681
577896
578076
578300
578478
578717
578918
579126
579343
579549
579740
579944
580138
580361
580550
580762
580950
581175
581375
581577
581772
581991
582203
582404
582601
582810
583003
583218
583419
583624
583825
584044
584239
584439
584619
585064
585266
585469
585672
585881
586074
586263
586489
586694
586899
587060
587309
587509
587711
587922
588134
588333
588531
588729
588927
589144
589338
589540
589706
589957
590165
590360
590560
590774
590982
591144
591382
591586
591784
591986
592187
592399
592572
592805
593011
593209
593407
593613
593821
594022
594224
594427
594623
594823
595033
595232
595433
595626
595847
596049
596247
596436
596662
596868
597069
597273
597474
597683
597882
598080
598288
598499
598699
598848
599089
599287
599498
599711
599918
600121
600321
600528
600730
600932
601135
601344
601557
601756
601959
602167
602361
602547
602776
602982
603185
603350
603576
603781
603987
604198
604397
604602
604804
605014
605217
605422
605634
605843
606047
606218
606452
606623
606855
607066
607268
607474
607673
607885
608081
608284
608496
608702
608905
609077
609316
609516
609724
609894
610133
610340
610544
610753
610947
611147
611355
611568
611764
611968
612166
612379
612576
612742
612980
613194
613405
613584
613785
614016
614219
614427
614638
614840
615041
615245
615442
615650
615847
616057
616258
616437
616666
616852
617069
617279
617493
617693
617898
618100
618299
618505
618704
618916
619118
619326
619528
619725
619927
620107
620347
620551
620755
620956
621160
621364
621561
621768
621979
622188
622386
622583
622794
622969
623208
623406
623620
623831
624025
624222
624429
624631
624836
625041
625245
625447
625646
625849
626057
626271
626471
626678
626880
627083
627289
627473
627702
627911
628116
628321
628522
628720
628930
629138
629344
629554
629748
629956
630158
630313
630559
630771
630980
631181
631389
631590
631793
632003
632214
632417
632619
632815
633022
633215
633435
633642
633849
634052
634260
634456
634659
634867
635076
635282
635491
635678
635891
636068
636299
636517
636719
636921
637126
637327
637523
637727
637940
638145
638349
638535
638753
638960
639159
639358
639577
639785
639990
640197
640396
640600
640808
641021
641227
641425
641627
641828
642031
642230
642439
642651
642850
643045
643251
643433
643665
643879
644080
644290
644485
644684
644895
645099
645306
645508
645716
645919
646115
646314
646523
646736
646935
647141
647342
647534
647744
647947
648157
648362
648511
648756
648968
649169
649369
649573
649784
