50
342
659
972
1291
1609
1904
2155
2478
2754
3068
3237
3688
3969
4228
4491
4767
5041
5313
5628
5955
6229
6486
6749
7029
7322
7616
7907
8203
8485
8740
9007
9291
9584
9898
10196
10468
10749
11014
11289
11567
11859
12163
12464
12655
13004
13269
13554
13837
14123
14425
14710
14991
15264
15525
15817
16127
16433
16727
17009
17274
17542
17810
18084
18384
18689
18986
19271
19541
19823
20115
20407
20699
21007
21288
21546
21805
22075
22363
22672
22973
23256
23534
23792
24046
24311
24588
24894
25259
25546
25805
26077
26343
26610
26896
27188
27493
27781
28041
28192
28566
28855
29077
29437
29714
29868
30235
30474
30643
30993
31285
31485
31843
32099
32334
32568
32812
33066
33324
33540
33946
34214
34470
34735
35018
35302
35590
35866
36160
36441
36706
36973
37234
37513
37807
38080
38348
38615
38865
39370
39645
39928
40237
40392
40811
41081
41357
41643
41921
42231
42384
42863
43139
43406
43706
44001
44304
44617
44782
45212
45483
45758
45881
46366
46672
46979
47130
47528
47798
48080
48361
48647
48964
49250
49504
49751
50013
50280
50564
50875
51173
51473
51612
52008
52266
52533
52825
53111
53654
53926
54180
54438
54705
54979
55268
55582
55861
55998
56435
56718
56932
57336
57640
57937
58253
58692
58985
59277
59567
59854
60124
60383
60655
60820
61232
61542
61851
62106
62442
62719
62915
63294
63576
63886
64194
64485
64762
65035
65325
65634
65948
66268
66591
66876
67150
67427
68059
68361
68649
68935
69198
69727
70003
70290
70576
70849
71099
71349
71519
71860
72113
72382
72656
72925
73099
73406
73641
73892
74138
74405
74657
74920
75164
75414
75649
76750
77043
77333
77609
77883
78151
78363
78701
79020
79322
79498
79862
80120
80390
80669
80817
81253
81549
81827
82088
82341
82483
82900
83203
83498
83774
84049
84325
84592
84867
85162
85476
85798
86094
86232
86416
86914
87213
87498
87795
88090
88370
88634
88899
89187
89481
89770
90056
90337
90594
90851
91101
91238
91618
91908
92059
92443
92697
92820
93189
93457
93604
94020
94327
94625
94891
95157
95426
95718
96031
96340
96501
96966
97250
97533
97712
98158
98486
98795
99085
99229
99662
99943
100240
100536
100855
101158
101435
101718
102017
102313
102615
102924
103234
103522
103778
104039
104333
104627
104928
105234
105523
105809
106092
106379
106563
107302
107604
107780
108154
108442
108714
108987
109281
109577
109853
110103
110361
110630
110923
111230
111539
111854
112154
112431
113043
113558
114071
114359
114641
114950
115266
115412
115891
116190
116482
116613
117023
117307
117609
117909
118191
118476
118752
119021
119299
119470
119891
120202
120509
120775
121047
121323
121608
121902
122203
122515
122820
123096
123223
123417
124068
124374
124671
124955
125224
125381
125739
126017
126228
126605
126897
127076
127423
127677
127942
128199
128472
128751
128953
129330
129584
129705
130123
130412
130706
130994
131286
131569
131855
132133
132416
132744
133079
133397
133701
133993
134596
134913
135262
135587
135869
136138
136400
136673
136958
137244
137529
137829
138092
138341
138600
138869
139170
139485
139792
140092
140387
140534
140968
141276
141603
141830
142247
142541
142833
143129
143430
143747
144070
144395
144679
145281
145589
145907
146220
146517
146810
147081
147365
147575
148003
148322
148619
148779
149178
149468
149747
150034
150355
150671
150959
151247
151532
151837
152156
152465
152656
152773
153077
153235
153636
153924
154216
154526
154821
155097
155361
155615
155867
156031
156364
156625
156901
157183
157444
157689
157956
158237
158532
158837
159148
159459
159612
160042
160338
160656
160850
161287
161590
161868
162138
162399
162662
162865
163290
163616
163917
164206
164495
164794
164950
165405
165731
166026
166288
166553
166726
167117
167432
167734
167903
168023
168300
168569
168752
169116
169409
169711
169995
170262
170522
170776
171030
171286
171481
171838
172133
172420
172686
172810
173225
173505
173793
174092
174393
174685
174959
175226
175515
175836
176159
176467
176784
177077
177370
177675
177981
178153
178656
178874
179227
179498
179774
180050
180334
180636
180822
180906
181202
181343
181729
182001
182281
182567
182836
183118
183381
183631
183868
184043
184380
184660
184935
185206
185459
185711
185959
186222
186496
186789
187099
187414
187694
187959
188239
188515
188795
189082
189366
189644
189914
190159
190323
190669
190948
191231
191506
191782
191954
192295
192550
192813
193087
193384
193577
193975
194250
194518
194792
195082
195271
195664
195980
196173
196525
196789
196970
197339
197653
198171
198446
198696
198938
199188
199372
199723
199998
200269
200517
200756
200937
201259
201504
201767
202039
202315
202519
202856
203101
203241
203646
203931
204219
204511
204804
205074
205330
205584
205864
206164
206465
206748
207019
207274
207526
207769
208023
208293
208578
208854
209106
209347
209578
209817
210081
210339
210601
210884
211181
211445
211693
211958
212226
212401
212824
213107
213407
213692
213950
214217
214497
214793
215108
215405
215680
215962
216233
216510
216791
217082
217384
217685
217964
218222
218499
218719
219078
219377
219669
219959
220233
220496
220769
221069
221378
221678
221983
222280
222563
222848
223138
223453
223623
224111
224409
224686
224975
225276
225899
226230
226527
226648
227090
227370
227683
227993
228302
228611
228897
229176
229459
229758
230074
230397
230705
230986
231274
231406
231855
232158
232453
232647
233050
233308
233504
233865
234148
234341
234740
235015
235195
235558
235831
236368
236665
236949
237233
237493
237750
238018
238287
238568
238775
239210
239486
239765
240035
240331
240630
240940
241263
241582
241872
242011
242475
242802
243141
243469
243801
244097
244385
244681
244828
245346
245653
245948
246226
246497
246783
247075
247235
247699
248009
248286
248556
248851
249023
249432
249723
250018
250306
250569
250830
251100
251403
251709
252003
252308
252586
252869
253006
253444
253757
254076
254248
254659
254927
255195
255476
255752
255894
256319
256612
256873
257124
257388
257656
257944
258239
258530
258688
259122
259390
259664
259950
260248
260559
260866
261148
261433
261711
261992
262289
262590
262902
263204
263468
263729
263878
264306
264592
264884
265172
265457
265724
265987
266263
266567
266882
267189
267492
267776
268057
268351
268644
268965
269299
269616
269912
270198
270506
270824
271148
271475
271813
272106
272397
272699
272892
273371
273692
274006
274304
274448
274868
275166
275468
275770
276062
276329
276599
276875
277140
277428
277726
277898
278319
278587
278844
279129
279410
279692
279989
280287
280583
280716
281129
281417
281614
282040
282332
282622
282902
283180
283464
283599
284088
284403
284713
284998
285276
285449
285875
286172
286499
286816
287105
287388
287670
287856
288315
288623
288944
289243
289527
289798
290087
290245
290720
291021
291304
291583
291850
291988
292385
292666
292951
293240
293504
293759
294020
294296
294578
294859
295156
295454
295753
296323
296626
296935
297235
297540
297723
298139
298424
298709
299012
299182
299658
299944
300225
300508
300798
301091
301390
301556
301780
301904
302400
302668
302943
303232
303518
303717
304086
304356
304622
304873
305134
305402
305694
305984
306275
306553
306703
306872
307338
307630
307929
308247
308541
308815
309000
309416
309715
310031
310345
310513
310972
311256
311553
311873
312194
312506
312819
313120
313409
313702
313848
314336
314647
314934
315204
315471
315752
316031
316218
316637
316940
317131
317495
317753
318027
318299
318581
318867
319167
319439
319698
319829
320227
320519
320814
321109
321407
321701
321979
322272
322578
322893
323234
323559
323860
324035
324501
324812
325144
325360
325824
326118
326402
326721
327030
327339
327657
327811
328257
328531
328804
328955
329415
329709
330001
330291
330561
330839
331110
331386
331676
331969
332244
332500
332763
333019
333296
333590
333752
334192
334494
334773
335042
335332
335539
335948
336262
336564
336868
337158
337447
337757
338081
338424
338607
339070
339380
339697
340007
340200
340684
341004
341292
341574
341876
342178
342481
342789
343090
343383
343653
343928
344119
344554
344856
345157
345430
345691
345966
346237
346514
346827
347134
347416
347687
347951
348099
348531
348830
349129
349451
349742
350007
350284
350573
350889
351047
351544
351857
352149
352425
352724
353042
353372
353698
353998
354150
354599
354882
355188
355333
355536
356055
356332
356596
356867
357134
357409
357689
357966
358254
358516
358770
359035
359321
359613
359903
360194
360483
360757
361030
361316
361613
361800
362278
362574
362860
363137
363436
363733
364034
364363
364680
364963
365248
365533
365834
366032
366472
366775
366963
367351
367616
367895
368176
368481
368648
369096
369370
369646
369927
370200
370391
370797
371088
371363
371618
371880
372165
372446
372729
373029
373318
373599
373869
374146
374281
374776
375087
375401
375699
375999
376188
376625
376948
377293
377621
377923
378215
378530
378858
379184
379534
379799
380185
380482
380784
381094
381411
381563
382053
382337
382600
382876
383161
383469
383784
384085
384368
384635
384920
385167
385454
385740
386042
386315
386563
386812
387077
387338
387590
387860
388119
388388
388644
388879
389110
389364
389638
389924
390195
390482
390752
391013
391264
391516
391782
392075
392369
392649
392924
393187
393394
393738
394020
394316
394625
394927
395204
395339
395777
396078
396380
396682
397007
397171
397588
397858
398146
398465
398779
398964
399400
399687
399854
400255
400542
400744
401155
401438
401700
401965
402242
402392
402814
403104
403399
403692
403956
404208
404495
404794
404992
405407
405706
405997
406274
406563
406850
407046
407513
407814
408118
408404
408702
409006
409318
409652
409988
410295
410595
410908
411237
411573
411898
412245
412477
412602
413087
413391
413713
414010
414302
414592
414865
415132
415398
415676
415967
416261
416530
416780
417044
417212
417584
417865
418154
418447
418743
418918
419259
419543
419834
420129
420429
420714
420980
421244
421498
421753
422028
422312
422586
422854
423115
423360
423600
423844
424057
424334
424609
424872
425119
425360
425596
425830
426006
426319
426576
426839
427122
427394
427638
427812
428143
428413
428697
428973
429248
429543
429718
430109
430379
430668
430836
431315
431626
431921
432212
432509
432715
433128
433453
433773
434070
434348
434649
434828
435274
435591
435900
436208
436490
436771
437089
437415
437743
437935
438397
438707
439009
439313
439650
439994
440182
440633
440923
441234
441550
441858
442200
442520
442812
443109
443403
443721
443952
444371
444547
444977
445246
445522
445802
446103
446281
446709
446980
447243
447505
447772
448043
448323
448622
448917
449177
449424
449687
449870
450250
450536
450838
451136
451321
451684
451959
452143
452567
452858
453047
453424
453689
453942
454205
454466
454668
455048
455322
455582
455824
456075
456264
456395
456851
457145
457308
457717
457965
458106
458483
458755
458908
459302
459588
459862
460108
460352
460612
460879
461170
461469
461767
462070
462352
462631
462918
463216
463544
463873
464182
464476
464777
465086
465395
465720
466051
466378
466670
466958
467270
467424
467896
468196
468484
468759
469025
469166
469578
469877
470168
470451
470730
470994
471262
471536
471817
472108
472309
472708
472965
473103
473458
473719
473989
474259
474519
474804
475077
475326
475583
475864
476159
476487
476809
477112
477428
477716
478024
478350
478580
479047
479359
479671
479989
480308
480628
480968
481318
481637
481941
482262
482603
482939
483290
483626
483947
484253
484567
484926
485291
485625
485942
486248
486552
486869
487201
487541
487866
488150
488419
488704
489002
489157
489593
489906
490186
490450
490718
490996
491302
491624
491936
492261
492568
492854
493171
493505
493857
494196
494509
494835
495144
495458
495798
496134
496478
496783
497074
497228
497670
497962
498250
498539
498822
499080
499338
499608
499891
500190
500472
500753
500928
501286
501537
501685
502070
502363
502640
502903
503154
503400
503643
503905
504170
504452
504765
504980
505197
505628
505896
506176
506477
506773
507066
507378
507666
507943
508247
508561
508897
509234
509541
509842
510149
510439
510728
511026
511338
511650
511931
512201
512496
512642
513068
513352
513537
513895
514141
514379
514619
514873
515139
515422
515700
515987
516255
516518
516685
517061
517348
517637
517924
518189
518355
518735
519014
519295
519571
519869
520075
520469
520724
520909
521325
521649
521962
522278
522595
522790
523181
523474
523786
524115
524286
524719
524996
525264
525532
525826
526125
526442
526733
526999
527274
527576
527862
528153
528470
528781
529093
529368
529653
529976
530302
530603
530757
531222
531501
531775
532053
532353
532517
532977
533263
533548
533823
534100
534239
534667
534975
535276
535554
535821
536082
536372
536661
536952
537247
537550
537817
538074
538340
538615
538918
539225
539526
539826
540119
540262
540692
540998
541304
541619
541914
542044
542445
542712
542974
543240
543520
543794
544077
544331
544573
544823
545106
545389
545677
545993
546301
546588
546726
547170
547481
547803
547977
548438
548718
548999
549163
549590
549882
550100
550515
550782
551054
551336
551638
551950
552109
552604
552903
553185
553475
553776
554107
554443
554763
555082
555387
555692
556015
556356
556702
557004
557276
557560
557835
558104
558403
558563
559010
559294
559543
559782
560075
560350
560627
560923
561217
561491
561751
562007
562271
562555
562739
563101
563367
563624
563879
564116
564291
564599
564863
565143
565410
565658
565825
566128
566370
566633
566907
567181
567381
567779
568048
568222
568566
568840
569035
569431
569703
569989
570255
570498
570740
571001
571262
571457
571810
572077
572214
572615
572874
573141
573423
573709
573926
574321
574587
574866
575159
575462
575769
576091
576414
576729
577024
577327
577669
578007
578336
578589
579001
579308
579518
579965
580305
580634
580944
581220
581502
581795
582409
582729
583032
583584
583868
584169
584471
584773
585092
585392
585677
585856
586290
586605
586936
587248
587546
587828
588124
588273
588742
589067
589385
589668
589951
590244
590553
590861
591177
591346
591812
592080
592373
592682
592990
593285
593596
593884
594170
594450
594725
595050
595377
595695
595998
596287
596577
596866
597168
597478
597794
598094
598367
598640
598928
599228
599532
599844
600170
600458
600726
601006
601299
601614
601911
602197
602491
602758
603024
603316
603487
603678
604178
604478
604746
605018
605274
605533
605807
606082
606365
606653
606909
607149
607408
607670
607934
608198
608459
608710
608968
609215
609378
609694
609964
610250
610520
610791
611070
611314
611578
611834
612099
612379
612676
612960
613213
613466
613708
613954
614217
614396
614741
615006
615262
615509
615737
615976
616137
616491
616768
617046
617316
617471
617843
618090
618335
618589
618861
619054
619467
619736
620020
620299
620594
620769
621202
621515
621813
622089
622350
622525
622916
623203
623509
623813
624098
624362
624526
624916
625210
625518
625807
625997
626373
626645
626925
627063
627508
627811
628097
628372
628632
628895
629174
629451
629722
630019
630321
630586
630848
631112
631396
631694
631993
632292
632609
632890
633147
633412
633691
633989
634277
634553
634833
635101
635369
635637
635921
636214
636519
636808
637078
637351
637603
637866
638041
638415
638696
638994
639263
639509
639666
640037
640314
640580
640857
641138
641418
641560
641947
642208
642505
642802
643096
643280
643667
643941
644210
644478
644767
645077
645264
645635
645890
646145
646412
646688
646882
647251
647549
647733
648071
648317
648492
648827
649106
649373
649625
649881
