126
315
505
707
901
1099
1296
1482
1670
1855
2043
2221
2407
2596
2787
2991
3199
3400
3605
3790
3972
4154
4340
4525
4714
4910
5108
5309
5500
5690
5877
6064
6263
6424
6629
6820
7014
7218
7415
7618
7819
8020
8208
8392
8571
8755
8948
9119
9211
9551
9747
9945
10137
10325
10494
10606
10876
11063
11255
11450
11644
11842
12051
12250
12438
12620
12797
12979
13163
13342
13535
13732
13938
14140
14332
14519
14703
14890
15024
15262
15455
15651
15849
16044
16246
16438
16636
16809
17005
17182
17363
17543
17732
17929
18131
18329
18484
18719
18902
19085
19264
19457
19569
19816
20010
20211
20403
20596
20795
20995
21180
21360
21537
21721
21899
22099
22283
22487
22688
22895
23087
23278
23460
23638
23822
24015
24205
24407
24602
24801
25007
25201
25394
25575
25759
25940
26054
26309
26501
26706
26922
27126
27329
27515
27662
27765
28057
28243
28430
28630
28824
29022
29214
29400
29591
29779
29957
30138
30316
30492
30677
30838
31064
31268
31470
31672
31858
32041
32219
32398
32586
32783
32980
33182
33376
33575
33773
33962
34148
34330
34518
34705
34857
35085
35281
35487
35704
35906
36066
36285
36464
36648
36828
37017
37215
37413
37610
37815
38002
38199
38372
38571
38746
38931
39110
39296
39478
39679
39872
40077
40276
40468
40648
40829
41008
41193
41385
41583
41779
41980
42175
42371
42564
42746
42932
43117
43309
43494
43688
43880
44077
44282
44494
44687
44877
45055
45236
45419
45615
45793
45988
46178
46394
46592
46786
46970
47152
47336
47519
47706
47894
48083
48271
48473
48665
48864
49052
49240
49418
49599
49775
49954
50147
50350
50550
50754
50950
51141
51333
51515
51692
51877
52068
52264
52458
52660
52857
53058
53260
53455
53639
53821
53996
54177
54366
54560
54756
54954
55162
55361
55554
55733
55909
56091
56280
56469
56668
56851
57048
57240
57403
57624
57812
57992
58170
58345
58492
58710
58902
59045
59305
59499
59701
59878
60060
60208
60420
60596
60780
60970
61169
61366
61565
61755
61946
62135
62315
62504
62685
62866
63057
63257
63448
63648
63856
64061
64244
64423
64684
64794
64975
65169
65309
65567
65752
65963
66157
66347
66524
66704
66882
67054
67243
67436
67626
67821
68025
68245
68440
68624
68803
68973
69148
69325
69520
69714
69916
70110
70317
70510
70686
70871
71053
71232
71425
71559
71695
72001
72195
72395
72586
72794
72940
73154
73317
73495
73680
73873
74070
74261
74466
74651
74844
75029
75203
75393
75575
75747
75945
76137
76326
76523
76723
76931
77116
77298
77482
77663
77825
78011
78195
78383
78594
78798
78991
79189
79350
79546
79731
79916
80106
80297
80485
80677
80875
81064
81264
81454
81642
81818
82001
82181
82361
82557
82761
82964
83168
83360
83552
83733
83912
84088
84254
84458
84652
84847
85049
85246
85438
85639
85826
86008
86187
86361
86550
86725
86901
87091
87289
87493
87690
87882
88063
88238
88420
88598
88786
88977
89173
89364
89559
89764
89949
90134
90311
90494
90671
90854
91037
91225
91426
91640
91845
92037
92223
92406
92586
92771
92948
93130
93322
93526
93703
93927
94118
94311
94503
94692
94873
95062
95241
95432
95622
95822
96021
96228
96434
96628
96811
96995
97176
97362
97559
97764
97957
98165
98363
98552
98743
98927
99114
99301
99499
99681
99882
100073
100276
100477
100689
100883
101071
101252
101435
101622
101805
102001
102204
102414
102605
102749
102982
103181
103368
103558
103749
103942
104133
104330
104529
104735
104932
105126
105319
105501
105687
105858
106027
106211
106414
106627
106836
107049
107241
107428
107614
107791
107974
108165
108366
108565
108768
108963
109162
109366
109567
109744
109927
110075
110193
110464
110661
110853
111053
111254
111454
111641
111823
111997
112181
112361
112552
112743
112943
113139
113339
113543
113733
113921
114099
114284
114461
114655
114838
115030
115233
115444
115647
115849
116036
116230
116387
116576
116758
116945
117145
117346
117492
117743
117932
118121
118308
118488
118668
118851
119029
119192
119403
119589
119794
119992
120194
120379
120560
120735
120914
121103
121297
121488
121691
121881
122082
122282
122472
122654
122837
123023
123211
123399
123592
123784
123988
124204
124409
124610
124791
124973
125150
125337
125519
125715
125914
126117
126317
126520
126709
126894
127082
127266
127442
127636
127820
128016
128221
128417
128619
128817
129011
129196
129381
129561
129747
129938
130147
130351
130563
130764
130967
131157
131342
131483
131705
131897
132090
132286
132486
132678
132878
133082
133277
133460
133642
133815
133993
134180
134371
134564
134758
134966
135172
135370
135560
135738
135920
136113
136304
136499
136694
136890
137085
137240
137476
137668
137836
138041
138214
138401
138581
138774
138979
139191
139392
139593
139777
139961
140144
140330
140514
140705
140903
141102
141305
141507
141704
141899
142091
142273
142457
142639
142827
143017
143222
143417
143628
143836
144038
144222
144403
144582
144766
144962
145165
145364
145573
145770
145939
146173
146356
146544
146723
146915
147063
147291
147493
147686
147888
148115
148310
148502
148673
148850
149028
149218
149409
149618
149833
150051
150255
150454
150636
150821
151011
151203
151399
151591
151787
151987
152194
152395
152601
152796
152981
153158
153339
153524
153723
153877
154001
154185
154351
154554
154754
154941
155124
155300
155489
155684
155836
156079
156277
156477
156685
156892
157086
157270
157451
157633
157817
158009
158196
158400
158569
158823
159019
159210
159390
159574
159762
159955
160142
160340
160533
160732
160938
161133
161327
161511
161696
161875
162062
162223
162434
162633
162848
163050
163260
163445
163627
163808
163989
164173
164365
164563
164760
164963
165163
165361
165562
165754
165936
166118
166298
166487
166669
166867
167057
167264
167473
167679
167861
168044
168222
168405
168598
168794
168992
169199
169398
169600
169798
169984
170170
170353
170537
170724
170915
171107
171299
171499
171711
171915
172116
172297
172476
172652
172837
173019
173219
173355
173620
173813
174015
174202
174389
174572
174756
174928
175118
175294
175488
175676
175871
176060
176260
176455
176639
176817
176998
177174
177358
177553
177758
177960
178109
178355
178546
178733
178914
179093
179277
179468
179716
180052
180206
180458
180665
180855
181039
181218
181398
181579
181769
181956
182160
182362
182572
182768
182946
183141
183319
183503
183695
183883
184079
184268
184466
184665
184865
185059
185244
185428
185606
185791
185978
186169
186364
186576
186788
186997
187193
187381
187559
187743
187920
188117
188314
188528
188729
188935
189131
189329
189529
189663
189896
190084
190269
190457
190661
190860
191067
191270
191477
191662
191847
192019
192400
192604
192804
193013
193208
193414
193614
193801
193981
194161
194343
194528
194716
194900
195087
195289
195501
195700
195895
196070
196249
196423
196609
196789
196984
197182
197390
197593
197796
197989
198177
198363
198546
198731
198921
199111
199304
199506
199701
199894
200110
200303
200483
200662
200837
201023
201215
201419
201618
201831
202022
202219
202405
202554
202766
202946
203140
203320
203511
203703
203897
204100
204309
204486
204682
204856
205039
205217
205406
205589
205792
205998
206183
206283
206595
206783
206965
207148
207335
207525
207722
207911
208107
208309
208505
208708
208896
209084
209265
209447
209633
209817
210018
210227
210430
210640
210835
211029
211206
211396
211561
211750
211942
212141
212330
212499
212719
212915
213069
213305
213484
213665
213839
214026
214215
214408
214606
214804
215010
215207
215396
215575
215750
215931
216122
216311
216507
216703
216899
217092
217296
217484
217673
217855
218041
218223
218413
218599
218796
218973
219218
219417
219615
219799
219982
220164
220346
220532
220726
220930
221138
221342
221546
221741
221898
222122
222304
222494
222680
222874
223049
223276
223467
223676
223879
224039
224244
224431
224606
224787
224979
225184
225384
225591
225784
225977
226167
226348
226531
226715
226911
227101
227298
227496
227696
227904
228115
228307
228496
228678
228863
229051
229247
229443
229649
229862
230074
230281
230475
230661
230846
231036
231233
231430
231626
231828
232028
232233
232426
232578
232809
232994
233171
233350
233532
233728
233941
234155
234308
234565
234758
234944
235132
235313
235468
235694
235893
236092
236296
236462
236696
236897
237089
237274
237454
237639
237824
238020
238213
238421
238628
238841
239038
239226
239404
239588
239780
239975
240173
240375
240576
240772
240979
241170
241365
241554
241743
241928
242116
242296
242511
242724
242949
243159
243357
243540
243720
243906
244087
244280
244474
244679
244885
245075
245270
245476
245635
245853
246030
246211
246391
246577
246774
246964
247166
247369
247574
247761
247945
248122
248301
248491
248690
248887
249095
249293
249497
249697
249893
250081
250266
250453
250641
250832
251027
251222
251424
251634
251838
252037
252222
252404
252583
252769
252947
253142
253343
253554
253752
253955
254141
254329
254519
254707
254893
255083
255267
255460
255662
255859
256065
256261
256454
256632
256815
256995
257179
257375
257580
257778
257986
258181
258379
258568
258751
258928
259108
259292
259482
259671
259871
260060
260257
260451
260561
260841
261028
261205
261386
261576
261767
261968
262173
262386
262589
262788
262975
263159
263346
263539
263729
263932
264086
264329
264528
264732
264923
265114
265301
265484
265670
265856
266038
266232
266440
266649
266852
267047
267227
267405
267589
267735
267953
268140
268344
268540
268746
268943
269141
269337
269527
269707
269892
270078
270268
270463
270665
270867
271076
271287
271484
271671
271853
272034
272225
272426
272628
272838
273037
273241
273441
273641
273830
274017
274204
274397
274591
274786
274985
275192
275412
275620
275822
276003
276190
276371
276559
276748
276949
277162
277369
277572
277767
277959
278152
278344
278526
278718
278901
279100
279322
279506
279669
279907
280106
280288
280468
280644
280816
281001
281200
281402
281611
281812
282008
282196
282386
282564
282750
282938
283131
283322
283523
283724
283933
284148
284354
284546
284730
284911
285094
285290
285476
285681
285892
286105
286309
286509
286696
286883
287072
287263
287456
287651
287846
288045
288253
288453
288658
288851
289037
289215
289398
289583
289774
289979
290190
290488
290791
290979
291166
291340
291522
291703
291901
292091
292292
292483
292677
292844
293080
293264
293451
293623
293808
293994
294188
294386
294590
294797
294999
295195
295383
295566
295751
295943
296136
296336
296536
296738
296933
297135
297324
297515
297701
297888
298070
298258
298439
298637
298845
299060
299263
299463
299647
299819
300020
300191
300378
300564
300767
300941
301162
301359
301551
301737
301923
302104
302287
302472
302658
302843
303045
303238
303444
303646
303850
304033
304219
304397
304583
304779
304988
305189
305402
305598
305801
305998
306183
306371
306556
306752
306941
307142
307336
307537
307746
307962
308161
308353
308535
308717
308901
309092
309286
309490
309703
309908
310109
310303
310490
310678
310868
311022
311249
311435
311633
311832
312194
312430
312617
312797
312974
313150
313328
313511
313708
313913
314113
314322
314513
314700
314882
315061
315246
315433
315632
315815
316031
316226
316429
316637
316841
317026
317210
317387
317572
317762
317956
318163
318366
318580
318780
318978
319164
319326
319540
319732
319923
320128
320326
320532
320740
320935
321133
321321
321512
321693
321885
322071
322264
322469
322695
322904
323112
323299
323482
323660
323837
324029
324158
324419
324617
324823
325021
325220
325421
325615
325797
325981
326160
326350
326545
326747
326954
327158
327374
327573
327766
327949
328132
328321
328522
328687
328929
329130
329334
329535
329732
329924
330113
330302
330489
330678
330867
331066
331276
331493
331696
331897
332080
332272
332447
332629
332816
333005
333206
333404
333603
333799
333985
334171
334351
334532
334715
334903
335087
335278
335481
335675
335884
336089
336289
336475
336658
336838
337025
337224
337433
337639
337847
338048
338249
338446
338632
338822
339005
339199
339386
339587
339784
339989
340195
340404
340597
340789
340970
341153
341340
341521
341717
341919
342129
342330
342527
342714
342895
343078
343264
343450
343643
343833
344023
344218
344421
344613
344810
344993
345178
345354
345539
345714
345898
346094
346308
346517
346673
346915
347098
347278
347464
347641
347822
348008
348203
348391
348594
348784
348981
349179
349367
349539
349675
349886
350068
350253
350439
350629
350828
351035
351236
351420
351598
351775
351955
352145
352301
352528
352726
352924
353118
353318
353504
353694
353875
354057
354233
354420
354605
354800
354996
355138
355422
355627
355809
355989
356170
356351
356539
356733
356939
357145
357351
357549
357743
357893
358122
358304
358491
358672
358861
359052
359259
359456
359666
359871
360064
360243
360423
360601
360791
360992
361196
361408
361617
361817
362011
362205
362393
362574
362757
362944
363131
363326
363520
363722
363933
364137
364299
364432
364686
364864
365053
365233
365427
365625
365845
366049
366255
366439
366624
366779
366998
367179
367373
367558
367755
367953
368154
368361
368559
368754
368934
369117
369297
369484
369681
369887
370088
370298
370497
370696
370884
371069
371254
371440
371637
371822
372021
372218
372404
372623
372786
373023
373209
373388
373566
373741
373932
374120
374321
374530
374732
374929
375121
375305
375491
375681
375871
376065
376261
376455
376654
376861
377049
377249
377439
377627
377808
377992
378172
378365
378570
378782
378984
379194
379358
379576
379766
379951
380135
380324
380528
380730
380939
381139
381340
381542
381740
381926
382114
382293
382483
382674
382875
383079
383283
383498
383699
383894
384051
384266
384452
384653
384853
385064
385273
385478
385677
385877
386067
386256
386445
386636
386826
387023
387222
387390
387647
387862
388063
388248
388430
388610
388801
388986
389188
389384
389591
389786
389989
390180
390368
390554
390737
390923
391118
391306
391500
391707
391907
392120
392324
392523
392704
392891
393074
393267
393468
393681
393893
394106
394308
394507
394700
394882
395072
395259
395457
395650
395852
396050
396257
396471
396677
396866
397049
397226
397410
397605
397797
398006
398211
398426
398627
398829
399018
399207
399395
399589
399776
399987
400187
400395
400606
400805
401011
401201
401391
401575
401762
401945
402141
402352
402574
402790
403004
403135
403380
403566
403746
403937
404132
404335
404534
404745
404943
405146
405318
405538
405712
405893
406077
406266
406464
406657
406865
407072
407286
407481
407671
407850
408030
408222
408424
408618
408824
409019
409222
409431
409627
409820
410004
410193
410378
410573
410759
410949
411169
411385
411589
411790
411975
412159
412347
412527
412719
412912
413120
413317
413521
413720
413915
414105
414292
414472
414659
414843
415033
415229
415422
415622
415828
416035
416222
416403
416583
416764
416951
417153
417352
417558
417755
417956
418152
418348
418531
418715
418900
419090
419278
419471
419662
419869
420085
420297
420494
420678
420859
421039
421226
421409
421605
421803
422014
422211
422415
422604
422787
422972
423157
423341
423535
423721
423921
424117
424321
424521
424723
424916
425099
425284
425468
425654
425852
426062
426276
426490
426695
426894
427082
427269
427447
427636
427829
428032
428230
428439
428633
428839
428982
429239
429426
429610
429788
429974
430168
430360
430536
430766
430969
431159
431350
431530
431712
431896
432089
432278
432477
432671
432874
433072
433271
433461
433650
433839
434024
434210
434396
434587
434790
435006
435215
435384
435617
435803
435987
436174
436358
436554
436757
436966
437174
437382
437583
437782
437976
438165
438352
438543
438737
438936
439146
439307
439562
439775
439979
440157
440340
440521
440711
440911
441111
441325
441535
441740
441933
442124
442306
442493
442679
442871
443063
443310
443446
443674
443896
444107
444304
444487
444674
444857
445050
445239
445444
445658
445874
446089
446290
446480
446670
446863
447052
447251
447439
447642
447844
448050
448259
448462
448662
448847
449035
449218
449413
449578
449830
450035
450254
450453
450655
450847
451014
451199
451389
451585
451771
451967
452156
452352
452497
452761
452949
453137
453311
453491
453672
453863
454060
454261
454469
454670
454873
455066
455252
455440
455627
455818
456014
456206
456410
456613
456815
457017
457217
457414
457601
457787
457951
458159
458357
458572
458783
458928
459195
459386
459571
459757
459941
460102
460324
460518
460735
460895
461132
461313
461517
461700
461880
462055
462235
462417
462608
462795
463001
463204
463418
463611
463803
463979
464162
464351
464555
464749
464959
465156
465362
465568
465768
465963
466153
466346
466532
466727
466919
467121
467332
467552
467759
467964
468146
468332
468515
468701
468894
469091
469305
469510
469673
469770
470106
470304
470498
470685
470859
471050
471240
471430
471633
471822
472025
472219
472407
472582
472761
472936
473120
473316
473524
473727
473934
474132
474331
474525
474710
474897
475081
475275
475463
475664
475860
476059
476268
476484
476678
476869
477051
477237
477425
477613
477813
478020
478240
478446
478655
478839
479026
479216
479409
479601
479800
479989
480179
480375
480594
480801
480993
481177
481353
481531
481710
481895
482064
482319
482711
482927
483117
483302
483484
483665
483846
484040
484241
484453
484660
484867
485028
485265
485460
485645
485830
486015
486210
486406
486613
486815
487026
487241
487441
487630
487813
487993
488183
488384
488586
488796
488999
489205
489403
489598
489786
489972
490161
490346
490531
490723
490917
491124
491338
491545
491742
491924
492106
492285
492474
492655
492854
493060
493268
493474
493674
493865
494056
494246
494431
494620
494806
494996
495193
495401
495598
495809
496011
496204
496387
496572
496752
496946
497145
497348
497556
497762
497969
498167
498347
498536
498722
498910
499102
499290
499485
499676
499874
500084
500292
500481
500664
500839
501018
501208
501394
501592
501792
502011
502182
502423
502611
502799
502983
503173
503364
503560
503752
503954
504151
504355
504555
504752
504943
505125
505306
505494
505680
505881
506098
506310
506523
506724
506918
507105
507295
507473
507662
507856
508061
508263
508470
508664
508863
509061
509253
509439
509597
509807
509991
510192
510336
510595
510805
511018
511213
511396
511580
511763
511952
512148
512340
512542
512734
512929
513120
513309
513491
513675
513859
514042
514230
514417
514607
514808
515023
515235
515435
515622
515806
515989
516179
516363
516561
516761
516931
517173
517379
517576
517765
517952
518139
518325
518520
518705
518896
519095
519290
519498
519698
519895
520071
520251
520426
520606
520803
521011
521211
521431
521634
521838
522032
522219
522403
522586
522783
522976
523142
523376
523578
523791
524011
524207
524397
524576
524755
524941
525130
525329
525537
525765
525977
526164
526548
526696
526922
527109
527301
527484
527680
527875
528075
528266
528462
528644
528823
528997
529182
529360
529550
529752
529965
530169
530378
530572
530701
530939
531112
531299
531487
531686
531850
532080
532272
532471
532674
532869
533052
533212
533406
533586
533774
533963
534166
534364
534578
534720
534968
535149
535329
535511
535703
535890
536089
536277
536472
536666
536865
537057
537246
537428
537608
537787
537975
538161
538359
538569
538779
538990
539187
539374
539529
539742
539917
540110
540305
540507
540707
540875
541002
541298
541498
541689
541870
542055
542236
542423
542622
542815
543019
543219
543433
543623
543812
543992
544176
544360
544559
544753
544962
545160
545332
545551
545741
545923
546106
546290
546472
546653
546842
547031
547233
547388
547652
547847
548039
548219
548399
548582
548762
548955
549153
549367
549566
549771
549969
550157
550347
550540
550721
550919
551106
551306
551505
551709
551907
552110
552307
552495
552681
552860
553042
553234
553444
553652
553862
554063
554254
554440
554627
554804
554989
555172
555363
555550
555753
555945
556144
556348
556547
556731
556916
557093
557274
557462
557650
557853
558058
558271
558473
558675
558861
559047
559234
559429
559620
559824
560019
560226
560434
560638
560838
561030
561223
561409
561544
561785
561979
562188
562433
562660
562877
563069
563254
563440
563619
563810
564005
564213
564413
564624
564818
565015
565212
565403
565580
565758
565937
566127
566317
566520
566715
566863
567134
567333
567524
567706
567887
568077
568281
568479
568691
568892
569098
569301
569500
569690
569876
570066
570252
570449
570644
570843
571055
571278
571485
571687
571871
572058
572244
572426
572620
572817
572997
573119
573448
573651
573845
574036
574228
574409
574600
574786
574981
575183
575376
575588
575792
575996
576175
576358
576531
576710
576902
577100
577295
577502
577694
577896
578092
578279
578464
578644
578836
579028
579227
579397
579514
579833
580053
580256
580451
580632
580815
581002
581189
581387
581591
581811
582026
582233
582428
582616
582806
582996
583188
583388
583578
583780
583985
584189
584398
584598
584796
584921
585163
585347
585535
585731
585945
586152
586366
586506
586759
586953
587103
587309
587486
587680
587877
588014
588262
588450
588647
588850
589044
589226
589378
589582
589762
589953
590145
590345
590546
590759
590961
591159
591346
591530
591716
591916
592108
592314
592511
592719
592918
593120
593313
593506
593699
593885
594070
594257
594450
594657
594877
595091
595295
595421
595794
596026
596201
596391
596584
596789
596989
597195
597384
597576
597767
597957
598139
598329
598513
598703
598906
599106
599317
599523
599734
599919
600107
600288
600478
600641
600888
601097
601315
601517
601723
601925
602111
602299
602483
602682
602874
603078
603280
603452
603700
603916
604117
604307
604489
604666
604859
605053
605244
605428
605673
605866
606067
606251
606435
606620
606801
606985
607177
607364
607562
607767
607966
608168
608366
608561
608742
608926
609105
609293
609495
609710
609916
610131
610326
610524
610715
610896
611085
611272
611474
611664
611868
612069
612273
612487
612697
612885
613071
613250
613433
613629
613817
614024
614225
614447
614651
614852
615038
615224
615411
615580
615796
615993
616189
616390
616607
616793
616989
617177
617363
617541
617722
617871
618083
618280
618508
618752
618955
619138
619321
619502
619683
619865
620051
620248
620441
620645
620846
621047
621244
621436
621620
621807
621987
622132
622364
622562
622760
622972
623187
623396
623590
623772
623953
624138
624340
624543
624754
624960
625163
625365
625571
625761
625952
626135
626321
626508
626701
626892
627092
627300
627510
627708
627897
628074
628253
628434
628610
628798
628991
629176
629398
629600
629791
629980
630168
630359
630542
630734
630913
631103
631297
631502
631699
631906
632106
632298
632483
632671
632854
633048
633253
633459
633671
633883
634046
634283
634479
634659
634846
635036
635237
635433
635635
635831
636088
636185
636454
636636
636820
636994
637170
637361
637545
637694
637940
638146
638344
638545
638729
638910
639095
639281
639467
639659
639853
640056
640259
640473
640632
640865
641051
641238
641420
641611
641795
641996
642211
642506
642723
642926
643113
643296
643482
643665
643864
644069
644253
644386
644741
644944
645142
645338
645524
645707
645897
646085
646280
646489
646690
646900
647107
647274
647494
647676
647856
648047
648253
648461
648679
648900
649110
649307
649503
649687
649877
