228
509
819
1136
1448
1752
2047
2335
2641
2933
3236
3550
3867
4160
4438
4729
5030
5337
5673
5974
6269
6565
6864
7158
7473
7778
8085
8394
8684
8961
9262
9564
9894
10195
10503
10786
11085
11376
11675
12010
12314
12614
12912
13184
13491
13720
14028
14335
14641
14953
15227
15517
15815
16130
16456
16743
17039
17343
17626
17926
18230
18541
18859
19155
19449
19733
20022
20335
20652
20959
21269
21564
21834
22142
22456
22769
23075
23386
23672
23964
24279
24554
24867
25190
25486
25798
26080
26363
26666
26966
27293
27594
27890
28190
28489
28774
28974
29306
29535
29860
30168
30448
30744
31037
31240
31590
31820
32141
32364
32674
32895
33217
33540
33843
34142
34440
34741
35034
35315
35618
35925
36236
36541
36824
37105
37398
37729
38038
38339
38639
38929
39223
39521
39827
40150
40454
40699
41015
41302
41593
41900
42215
42523
42836
43128
43409
43705
44030
44361
44673
44979
45262
45551
45869
46178
46491
46808
47117
47413
47688
47984
48277
48590
48913
49226
49516
49808
50116
50405
50713
51026
51331
51638
51940
52218
52525
52825
53153
53459
53751
54037
54336
54625
54940
55258
55568
55862
56156
56446
56745
57048
57373
57667
57864
58184
58450
58755
59049
59374
59701
60000
60290
60578
60876
61176
61488
61794
62097
62407
62700
62986
63279
63582
63911
64225
64522
64813
65085
65369
65562
65916
66217
66524
66807
67103
67363
67621
67813
68131
68440
68743
69047
69329
69617
69912
70222
70530
70844
71130
71431
71723
72023
72328
72633
72935
73246
73539
73818
74108
74939
75242
75532
75715
76026
76330
76658
76966
77265
77568
77867
78159
78446
78750
79066
79370
79674
79968
80261
80546
80863
81180
81493
81790
82093
82371
82668
82986
83307
83607
83925
84215
84508
84807
85108
85307
85645
85885
86204
86500
86785
87100
87421
87733
88037
88351
88629
88914
89215
89530
89832
90148
90450
90743
91039
91344
91641
91966
92279
92582
92864
93149
93333
93660
93889
94229
94511
94792
95077
95369
95633
95836
96148
96469
96783
97065
97348
97640
97946
98283
98588
98885
99193
99494
99775
100075
100386
100700
101020
101323
101611
101899
102189
102513
102840
103140
103435
103735
104026
104315
104632
104958
105262
105568
105765
106080
106305
106646
106858
107198
107509
107728
108049
108316
108630
108933
109246
109546
109859
110147
110431
110721
111022
111316
111633
111945
112231
112515
112685
113005
113252
113592
113894
114190
114482
114769
115068
115380
115695
115999
116298
116600
116889
117189
117474
117794
118115
118421
118706
118984
119276
119585
119919
120228
120531
120827
121127
121413
121716
122029
122340
122644
122947
123234
123528
123819
124140
124472
124785
125074
125365
125649
125852
126202
126490
126811
127118
127412
127697
127991
128300
128617
128927
129236
129525
129808
130094
130415
130746
131060
131361
131654
131937
132237
132549
132869
133175
133493
133790
134082
134368
134675
134924
135266
135521
135717
136001
136280
136587
136903
137226
137539
137849
138141
138427
138724
139033
139348
139549
139871
140176
140465
140748
141044
141367
141728
142035
142326
142623
142925
143234
143552
143875
144175
144484
144776
145066
145355
145672
146006
146317
146610
146897
147183
147480
147679
148022
148265
148587
148841
149157
149393
149565
149888
150202
150514
150827
151114
151396
151681
151988
152319
152639
152937
153234
153518
153806
154115
154434
154736
155041
155231
155381
155661
155949
156246
156560
157126
157427
157960
158560
158874
159180
159496
159707
160014
160318
160618
160931
161250
161560
161859
162086
162393
162694
163012
163334
163577
163896
164179
164480
164787
165035
165210
165520
165801
166092
166372
166664
166883
167204
167522
167840
168152
168371
168679
168983
169287
169538
169885
170194
170482
170780
171051
171366
171662
171962
172274
172580
172876
173167
173447
173759
174104
174412
174704
174998
175285
175583
175909
176238
176530
176842
177138
177437
177731
177929
178270
178551
178864
179166
179459
179744
180057
180398
180721
181030
181331
181606
181914
182228
182550
182859
183211
183478
183768
184018
184341
184654
184976
185287
185593
185872
186167
186488
186807
187123
187429
187723
188020
188321
188613
188915
189241
189547
189857
190144
190425
190719
191028
191360
191668
191966
192255
192550
192853
193150
193473
193782
194080
194390
194675
194962
195261
195597
195910
196207
196498
196782
196973
197299
197562
197890
198188
198466
198780
199067
199356
199665
199987
200299
200597
200893
201184
201467
201797
202127
202424
202634
202972
203249
203551
203855
204194
204499
204802
205104
205387
205683
205981
206292
206614
206926
207218
207505
207786
208103
208429
208731
209035
209332
209624
209920
210214
210525
210839
211157
211462
211751
212029
212332
212635
212952
213274
213573
213853
214149
214452
214615
214943
215239
215556
215787
216106
216392
216688
217001
217331
217638
217942
218224
218519
218811
219129
219462
219762
220053
220355
220647
220951
221263
221594
221897
222203
222494
222783
223076
223392
223747
224068
224360
224645
224932
225231
225554
225880
226184
226492
226786
227076
227366
227667
227980
228302
228606
228899
229182
229476
229796
230133
230431
230731
231032
231310
231619
231922
232218
232536
232852
233146
233424
233711
234009
234322
234650
234950
235244
235533
235839
236141
236445
236763
237065
237356
237652
237949
238242
238544
238875
239179
239479
239769
240062
240347
240656
240986
241297
241590
241887
242186
242487
242793
243113
243415
243721
244023
244302
244595
244900
245222
245536
245837
246133
246421
246713
247018
247337
247658
247950
248253
248542
248831
249129
249444
249743
250063
250365
250647
250878
251179
251504
251823
252110
252289
252469
252761
253050
253342
253525
253868
254095
254437
254661
254986
255274
255488
255787
256118
256433
256720
257018
257305
257607
257931
258241
258550
258855
259149
259385
259715
260014
260327
260648
260885
261213
261496
261779
262083
262411
262754
263069
263300
263611
263921
264232
264536
264861
265093
265414
265716
266005
266290
266604
266868
267201
267488
267787
268073
268233
268538
268860
269184
269479
269715
270034
270269
270591
270821
271168
271404
271755
272030
272326
272609
272919
273249
273563
273861
274163
274382
274705
275001
275336
275636
275945
276245
276538
276826
277120
277416
277670
278016
278305
278596
278888
279202
279512
279733
280081
280373
280667
280960
281255
281562
281884
282206
282516
282736
283086
283346
283632
283963
284198
284517
284789
285074
285340
285638
285890
286157
286445
286702
286967
287144
287425
287691
287959
288223
288495
288801
289048
289293
289594
289884
290187
290494
290758
291032
291274
291566
291865
292141
292385
292650
292898
293205
293474
293746
294038
294318
294615
294809
295151
295450
295743
296030
296325
296634
296948
297261
297563
297874
298125
298295
298618
298899
299149
299421
299674
299975
300243
300495
300672
301009
301235
301582
301807
302134
302413
302722
302987
303312
303584
303852
304040
304353
304554
304879
305166
305474
305810
306119
306409
306673
306849
307172
307435
307741
308009
308321
308619
308912
309205
309508
309811
310150
310457
310754
310959
311262
311501
311832
312128
312458
312694
313006
313302
313604
313903
314219
314540
314842
315153
315442
315729
316033
316371
316672
316945
317249
317536
317828
318124
318394
318684
318987
319294
319577
319752
320037
320329
320858
321173
321489
321770
322058
322358
322610
322970
323288
323564
323862
324157
324472
324678
325023
325332
325564
325847
326144
326421
326687
326918
327224
327507
327770
328070
328318
328523
328849
329109
329421
329727
330025
330293
330463
330776
331075
331372
331688
332000
332197
332489
332778
333044
333296
333599
333930
334220
334500
334751
334925
335242
335520
335764
336024
336298
336569
336801
337044
337283
337581
337861
338072
338359
338622
338862
339153
339321
339619
339801
340155
340456
340705
340969
341226
341522
341822
342127
342420
342701
342969
343256
343508
343801
344078
344411
344737
345010
345200
345509
345795
346097
346409
346742
346944
347129
347433
347702
347943
348202
348475
348753
349033
349333
349580
349813
350114
350412
350734
351027
351284
351601
351883
352144
352400
352584
352911
353162
353421
353682
353943
354192
354426
354688
354935
355219
355568
355870
356157
356402
356636
356878
357137
357396
357688
357951
358175
358405
358702
358948
359122
359426
359630
360000
360309
360571
360828
361051
361299
361573
361920
362110
362403
362644
362933
363176
363412
363647
363954
364247
364442
364771
365039
365272
365509
365752
365964
366273
366560
366831
367143
367419
367671
367854
368032
368355
368602
368934
369244
369526
369769
370159
370490
370723
370993
371231
371410
371671
371965
372222
372535
372729
373060
373308
373497
373778
374040
374312
374631
374817
375130
375441
375680
375986
376260
376523
376798
377133
377445
377741
378017
378251
378495
378745
379003
379312
379614
379908
380206
380511
380805
381048
381324
381574
381890
382142
382403
382644
382915
383187
383499
383689
384013
384311
384596
384803
385121
385410
385704
386019
386291
386532
386826
387131
387422
387744
388070
388375
388671
388952
389238
389548
389879
390095
390416
390650
390961
391202
391457
391748
392074
392392
392694
392954
393221
393391
393698
393894
394256
394571
394846
395031
395339
395637
395945
396261
396596
396889
397199
397490
397781
398083
398397
398665
398999
399288
399577
399864
400171
400496
400861
401167
401471
401761
402060
402357
402683
403017
403321
403623
403922
404200
404499
404807
405135
405445
405751
406037
406348
406628
406945
407262
407567
407872
408168
408451
408748
409046
409360
409687
409997
410280
410562
410857
411153
411483
411799
412104
412403
412688
412992
413285
413593
413913
414226
414527
414805
415097
415386
415714
416050
416347
416644
416938
417231
417534
417846
418165
418473
418759
419059
419354
419644
419943
420269
420582
420884
421181
421460
421756
422090
422433
422731
423034
423326
423614
423923
424229
424558
424863
425176
425468
425753
426043
426351
426669
426979
427287
427580
427857
428169
428473
428793
429107
429416
429706
429994
430297
430602
430905
431223
431516
431818
432081
432343
432608
432929
433260
433570
433867
434157
434460
434744
435056
435378
435687
435992
436290
436580
436886
437184
437532
437840
438140
438432
438721
439025
439343
439679
439984
440290
440592
440887
441188
441502
441833
442147
442449
442743
443034
443331
443648
443987
444300
444597
444897
445176
445485
445805
446128
446438
446746
447040
447333
447629
447935
448217
448418
448731
449027
449323
449600
449917
450239
450542
450847
451128
451420
451731
452042
452341
452644
452968
453277
453561
453852
454152
454459
454776
455100
455402
455687
455980
456294
456591
456907
457233
457530
457817
458059
458343
458531
458867
459185
459512
459811
460089
460377
460679
460993
461320
461626
461924
462219
462513
462817
463127
463440
463742
464050
464342
464629
464924
465227
465558
465878
466175
466468
466751
467043
467370
467688
467995
468305
468604
468881
469169
469469
469788
470106
470421
470711
470995
471285
471595
471908
472229
472531
472843
473114
473414
473722
474034
474352
474664
474965
475259
475547
475847
476154
476486
476795
477098
477384
477674
477990
478330
478662
478968
479259
479557
479866
480165
480467
480812
481118
481424
481713
482001
482302
482636
482967
483272
483569
483865
484138
484417
484610
484794
485109
485359
485589
485832
486060
486302
486511
486741
486992
487251
487493
487723
488079
488438
488685
488906
489229
489499
489752
490019
490275
490508
490732
491047
491345
491666
491972
492275
492558
492845
493151
493467
493798
494093
494395
494683
494976
495287
495599
495911
496220
496528
496813
497106
497404
497708
498037
498349
498644
498936
499233
499545
499871
500192
500498
500800
501090
501384
501686
501988
502307
502633
502930
503221
503505
503783
503977
504317
504557
504883
505094
505401
505701
505996
506294
506609
506922
507224
507522
507810
508101
508400
508726
509033
509341
509633
509917
510201
510508
510832
511143
511448
511748
512043
512332
512626
512932
513244
513555
513857
514140
514428
514721
515044
515373
515672
515970
516261
516554
516859
517176
517492
517797
518110
518399
518681
518983
519294
519620
519938
520190
520498
520748
521074
521400
521763
522066
522373
522587
522903
523207
523507
523817
524137
524376
524697
524978
525269
525568
525824
526179
526478
526774
527069
527363
527589
527917
528231
528541
528846
529059
529368
529664
529957
530284
530604
530844
531165
531448
531730
532041
532288
532629
532932
533232
533526
533819
534045
534370
534694
535005
535309
535604
535887
536180
536502
536829
537139
537391
537705
537989
538289
538600
538923
539172
539501
539799
540094
540382
540685
540932
541286
541594
541893
542177
542398
542728
543041
543364
543673
543971
544220
544532
544825
545132
545440
545757
546001
546317
546598
546890
547185
547502
547760
548086
548380
548671
548973
549268
549506
549833
550136
550443
550737
551021
551260
551572
551888
552209
552516
552810
553029
553331
553630
553958
554274
554500
554817
555115
555405
555705
556005
556328
556637
556939
557232
557523
557811
558123
558453
558773
559068
559365
559647
559950
560261
560588
560900
561208
561499
561790
562090
562388
562701
563021
563331
563628
563904
564197
564521
564845
565157
565465
565754
566046
566353
566649
566963
567286
567598
567894
568179
568466
568765
569087
569416
569717
570007
570295
570602
570895
571209
571535
571834
572138
572435
572723
573021
573330
573673
573981
574272
574561
574855
575151
575474
575816
576114
576411
576718
577009
577306
577612
577945
578250
578557
578850
579140
579427
579748
580097
580402
580700
581001
581286
581583
581898
582217
582524
582837
583124
583408
583709
584010
584330
584649
584952
585242
585529
585743
586046
586372
586680
586983
587284
587571
587875
588166
588471
588792
589103
589401
589691
589973
590269
590582
590897
591204
591502
591798
592092
592389
592695
593010
593325
593620
593916
594209
594502
594802
595126
595447
595754
596043
596329
596621
596926
597261
597579
597880
598176
598472
598774
599071
599386
599707
600016
600315
600600
600892
601194
601524
601744
602077
602301
602616
602899
603198
603507
603833
604133
604445
604740
605029
605325
605622
605941
606258
606571
606856
607144
607438
607755
608081
608394
608699
608990
609282
609583
609889
610193
610510
610824
611118
611405
611692
611993
612314
612644
612949
613245
613529
613838
614144
614453
614776
615088
615382
615677
615970
616267
616584
616928
617234
617529
617820
618107
618408
618745
619074
619377
619675
619974
620276
620571
620886
621213
621521
621832
622117
622401
622697
623028
623355
623655
623955
624244
624538
624842
625147
625466
625777
626084
626376
626661
626954
627258
627577
627890
628196
628497
628777
629078
629380
629703
630014
630316
630614
630901
631193
631496
631807
632130
632449
632745
633021
633317
633614
633934
634263
634569
634862
635156
635450
635761
636068
636380
636681
636991
637282
637575
637868
638177
638523
638832
639125
639418
639712
640007
640331
640662
640963
641268
641569
641865
642163
642462
642786
643100
643397
643692
643980
644268
644576
644910
645227
645521
645813
646097
646406
646711
647029
647341
647640
647936
648229
648521
648813
649124
649440
649750
