303
617
891
1209
1419
1711
1927
2209
2480
2727
3014
3232
3460
3867
4280
4583
4906
5207
5574
5850
6062
6357
6690
7121
7389
7803
8215
8450
8733
8992
9239
9544
9885
10237
10534
10794
11025
11279
11546
11810
12148
12350
12709
13015
13317
13610
13865
14143
14418
14645
14965
15233
15580
15847
16096
16363
16620
16894
17198
17472
17754
17996
18293
18570
18795
19174
19461
19828
20033
20285
20656
20948
21182
21600
21844
22051
22302
22551
22845
23057
23355
23636
23882
24233
24424
24751
25018
25313
25517
25834
26105
26444
26655
26946
27176
27479
27682
27990
28307
28506
28786
29089
29356
29599
29846
30057
30381
30678
30971
31188
31458
31729
31983
32288
32637
32997
33248
33571
33852
34110
34417
34654
34841
35218
35455
35646
35910
36252
36446
36802
37054
37358
37663
37894
38185
38409
38691
38946
39238
39529
39752
40025
40331
40643
40996
41235
41501
41932
42227
42451
42895
43097
43423
43696
44027
44251
44538
44858
45199
45460
45681
45904
46134
46448
46788
47116
47442
47661
47964
48236
48512
48787
49109
49368
49584
49811
50133
50515
50744
51111
51367
51707
52021
52300
52591
52959
53280
53607
53847
54102
54306
54636
54914
55163
55430
55723
55934
56302
56582
56902
57157
57404
57704
57939
58183
58386
58668
58957
59252
59633
59868
60197
60465
60753
61020
61352
61681
61907
62209
62441
62733
63030
63188
63583
63907
64133
64386
64700
64993
65382
65659
65965
66317
66551
66837
67107
67423
67712
67892
68212
68449
68724
68973
69216
69489
69783
70070
70329
70592
70916
71252
71563
71820
72115
72460
72740
73112
73325
73639
73885
74124
74403
74651
74937
75276
75547
75811
76110
76407
76694
76928
77213
77489
77702
77960
78235
78486
78781
78968
79369
79616
79860
80190
80462
80727
81029
81382
81759
82024
82289
82517
82805
83163
83357
83700
83967
84282
84589
84858
85077
85358
85569
85893
86197
86471
86696
87015
87399
87671
87923
88224
88509
88712
89043
89313
89570
89876
90192
90583
90891
91233
91454
91651
91864
92299
92572
92781
93031
93332
93615
93858
94102
94309
94619
94965
95257
95536
95861
96144
96447
96851
97071
97357
97641
97920
98236
98443
98755
98952
99249
99541
99815
100024
100388
100597
100866
101094
101350
101574
101954
102321
102558
102839
103095
103415
103691
103910
104218
104434
104704
105016
105258
105526
105744
106031
106337
106605
106987
107321
107625
107918
108185
108414
109342
109696
110010
110254
110617
110946
111264
111574
111880
112187
112460
112829
113131
113445
113751
114061
114355
114686
114967
115302
115595
115926
116213
116544
117120
117416
117704
118001
118259
118534
118766
119065
119364
119658
119936
120170
120457
120732
120967
121280
121601
121853
122177
122488
122812
123000
123281
123627
123923
124147
124440
124746
124975
125275
125539
125860
126101
126344
126584
126810
127048
127352
127635
127831
128113
128381
128648
128887
129162
129499
129782
130069
130340
130628
130959
131232
131565
131861
132108
132338
132631
132999
133226
133552
133824
134077
134309
134506
134951
135174
135447
135754
135961
136236
136506
136738
137003
137306
137612
137823
138117
138379
138678
138942
139191
139469
139752
140053
140344
140676
140880
141183
141493
141750
142102
142338
142602
142838
143187
143440
143657
143950
144226
144413
144725
144949
145207
145445
145685
145931
146288
146599
146842
147076
147321
147590
147793
148071
148349
148810
149076
149406
149621
149874
150187
150475
150727
150974
151309
151579
151808
152062
152288
152557
152782
153055
153269
153578
153865
154094
154402
154671
154899
155089
155398
155659
155889
156163
156438
156716
157006
157291
157604
157904
158193
158490
158797
159035
159344
159642
159949
160231
160523
160773
161014
161289
161602
161852
162156
162449
162740
163061
163326
163634
164096
164340
164742
165067
165520
165809
166133
166378
166656
166968
167249
167561
167850
168155
168451
168860
169077
169322
169590
169879
170169
170451
170741
171041
171327
171585
171911
172216
172470
172860
173172
173416
173642
173997
174259
174582
174814
175062
175386
175673
175972
176265
176523
176799
177128
177320
177683
177983
178187
178479
178804
179108
179405
179666
179984
180241
180538
180840
181168
181439
181738
182020
182320
182551
182833
183206
183800
184095
184391
184679
184945
185221
185499
185802
186169
186510
186745
186961
187252
187536
187799
188060
188307
188560
188746
189019
189230
189472
189761
190025
190365
190822
191128
191564
191949
192240
192547
192743
193037
193325
193590
193787
194152
194348
194616
194907
195194
195385
195764
196067
196254
196611
196918
197231
197539
197829
198129
198347
198628
198912
199168
199403
199746
200091
200354
200640
200928
201142
201382
201709
202054
202377
202673
203003
203303
203588
203906
204192
204482
204796
205080
205360
205586
205815
206101
206431
206659
206935
207192
207424
207717
208019
208302
208562
208773
209024
209285
209566
209842
210120
210402
210624
210970
211250
211531
211798
212104
212382
212613
212950
213246
213533
213786
214045
214349
214688
214959
215252
215545
215807
216020
216256
216526
216809
217045
217268
217525
217801
218041
218456
218771
219130
219492
219683
220051
220252
220521
220817
221062
221262
221533
221808
222064
222344
222592
222852
223078
223366
223551
223858
224173
224401
224711
224981
225277
225485
225780
226068
226290
226587
226818
227081
227376
227659
227968
228233
228455
228730
228995
229271
229460
229742
230004
230244
230522
230729
231076
231289
231646
232007
232227
232468
232744
233040
233394
233774
234050
234268
234567
234923
235142
235427
235809
236178
236455
236759
237025
237255
237503
237766
237994
238252
238575
238856
239132
239495
239770
240074
240395
240708
240984
241298
241556
241838
242138
242456
242677
242954
243236
243503
243836
244117
244417
244670
244924
245169
245506
245823
246173
246442
246757
247153
247406
247624
247937
248211
248418
248745
249036
249380
249634
249908
250246
250771
251058
251331
251648
251899
252131
252440
252716
252939
253127
253514
253727
254085
254295
254524
254783
255047
255274
255561
255818
256112
256394
256642
256877
257328
257610
257832
258134
258404
258683
258916
259200
259407
259735
259979
260267
260574
260793
261101
261329
261666
261994
262310
262574
262925
263243
263453
263790
264013
264327
264532
264847
265162
265468
265669
265980
266214
266549
267019
267244
267520
267758
268030
268239
268454
268792
269086
269395
269676
269903
270159
270473
270778
270977
271326
271590
271830
272122
272340
272644
272943
273217
273482
273725
273962
274295
274628
274886
275191
275515
275844
276109
276352
276712
276983
277320
277516
277858
278063
278342
278604
278796
279046
279268
279581
279849
280181
280482
280874
281158
281418
281672
282056
282341
282656
282937
283261
283602
283865
284063
284384
284589
284904
285197
285417
285617
285883
286152
286439
286659
286944
287161
287624
287944
288237
288478
288770
289085
289359
289688
289976
290260
290523
290752
291025
291327
291558
291867
292175
292514
292845
293204
293463
293699
293946
294229
294490
294807
295136
295353
295678
295944
296263
296526
296773
297074
297361
297598
297826
298090
298607
298823
299199
299397
299766
300084
301006
301338
301586
301945
302500
302801
303148
303432
303767
304385
304686
304993
305290
305569
306103
306423
306749
307026
307326
307569
307842
308108
308360
308584
308855
309156
309386
309667
309964
310272
310603
310935
311230
311454
311717
311945
312217
312515
312713
312960
313232
313426
313748
314156
314374
314626
314855
315167
315362
315641
315920
316142
316392
316638
316874
317194
317389
317707
317985
318265
318526
318780
319095
319345
319639
319934
320203
320460
320692
320952
321262
321835
322165
322730
323051
323609
323910
324471
324763
325307
325600
326130
326453
326742
327014
327284
327539
327819
328033
328330
328554
328881
329151
329340
329629
329893
330129
330454
330772
331330
331643
332190
332489
333037
333327
333886
334172
334704
335004
335544
335839
336386
336689
337223
337525
338052
338342
338888
339175
339469
339735
340329
340640
341204
341503
342038
342334
342869
343159
343688
343987
344520
344816
345355
345635
346033
346587
346885
347428
347727
348249
348810
349099
349622
349923
350455
350746
351285
351834
352129
352662
352950
353490
354024
354330
354854
355157
355684
355981
356497
356788
357307
357607
358140
358444
358963
359270
359814
360343
360884
361406
361699
362218
362513
363039
363592
363878
364402
364951
365150
365500
366044
366327
366850
367145
367664
367960
368483
369032
369573
370110
370312
370658
371198
371488
372020
372555
373108
373395
373908
374188
374485
374775
375065
375368
375676
376231
376791
377337
377730
377979
378173
378440
378628
378845
379113
379361
379611
379897
380128
380407
380643
380882
381334
381667
381976
382289
382595
382908
383216
383518
384075
384383
384686
384989
385299
385603
385909
386215
386523
386838
387372
387935
388476
388781
389081
389393
389914
390232
390537
390730
391004
391379
391939
392483
393043
393581
394122
394420
394708
395266
395559
396075
396378
396904
397202
397512
398042
398343
398873
399180
399481
399772
400308
400850
401393
401891
402192
402528
402789
403016
403242
403491
403731
403938
404233
404503
404859
405215
405513
405751
405993
406195
406464
406674
406917
407234
407491
407718
408011
408213
408506
408753
409006
409310
409596
409891
410136
410374
410686
411034
411357
411663
411866
412216
412422
412751
413300
413619
413916
414221
414516
414836
415152
415463
415815
416115
416431
416755
417071
417391
417964
418524
418842
419150
419451
419762
420071
420381
420958
421523
422071
422624
423162
423467
423773
424067
424600
424913
425210
425516
425817
426128
426439
426987
427546
428094
428650
428846
429193
429739
430034
430322
430618
430921
431216
431519
431831
432153
432473
433044
433618
433942
434249
434559
435084
435392
435699
436010
436545
437110
437653
437853
438209
438394
438754
439175
439403
439826
440121
440353
440586
440864
441152
441429
441647
441941
442257
442546
442810
443038
443351
443667
443942
444206
444464
444769
445073
445373
445710
445943
446208
446434
446701
446957
447261
447519
447871
448180
448408
448681
448998
449314
449639
449921
450134
450436
450713
451155
451501
451775
452013
452240
452500
452703
453072
453386
453653
453994
454518
454806
454995
455235
455478
455693
455977
456314
456541
456756
457086
457367
457639
457954
458192
458467
458779
459053
459303
459591
459911
460119
460414
460698
460930
461232
461515
461767
462072
462373
462599
462869
463107
463424
463681
463905
464187
464437
464759
465091
465451
465834
466135
466396
466693
466974
467193
467456
467755
468035
468348
468565
468851
469149
469459
469848
470173
470450
470744
470966
471322
471668
471988
472261
472587
472840
473096
473327
473546
473858
474119
474336
474703
474977
475210
475507
475783
475986
476299
476587
476877
477093
477459
477776
478098
478285
478577
478880
479191
479461
479690
480007
481113
481440
481719
482013
482551
482839
483371
483666
484213
484506
484994
485404
485978
486279
486818
487110
487659
487950
488495
488793
489327
489622
490169
490460
490991
491291
491825
492118
492660
493218
493522
494036
494337
494877
495167
495700
496003
496518
497071
497280
497633
497816
498190
498757
499310
499871
500420
500624
500979
501167
501528
501722
502023
502252
502488
502783
502991
503302
503586
503814
504110
504427
504767
505062
505349
505760
506039
506285
506520
506734
507023
507319
507662
507927
508182
508489
508806
509075
509311
509613
509889
510117
510357
510611
510894
511346
511641
511951
512161
512447
512739
512992
513243
513519
513809
514139
514472
514710
514992
515328
515653
515911
516107
516463
516740
516936
517264
517606
517918
518276
518603
518922
519184
519423
519727
520080
520418
520717
521001
521242
521442
521789
522108
522370
522570
522894
523179
523461
523753
523957
524188
524511
524757
525016
525284
525607
525826
526038
526362
526691
527013
527396
527680
527921
528186
528504
528804
529047
529301
529640
529964
530225
530436
530718
530931
531226
531488
531721
531912
532183
532432
532766
532978
533255
533473
533760
534099
534385
534669
534930
535133
535429
535619
535979
536250
536503
536794
537092
537454
537736
537975
538274
538597
538831
539158
539450
539728
539971
540280
540588
540890
541112
541435
541739
542055
542418
542723
543021
543277
543615
543957
544213
544486
544696
545089
545448
545809
546124
546383
546574
546778
547055
547354
547560
547881
548210
548525
548823
549177
549517
549776
550037
550311
550534
550960
551198
551412
551734
552052
552406
552678
553046
553248
553661
553957
554238
554456
554680
555014
555209
555480
555766
556091
556522
556855
557128
557372
557626
557825
558167
558366
558676
558943
559198
559450
559712
560051
560361
560615
560949
561271
561512
561828
562145
562372
562627
562911
563311
563614
563949
564285
564610
564906
565127
565329
565548
565805
566069
566382
566779
567112
567394
567638
567913
568190
568534
568861
569215
569454
569692
569991
570252
570555
570889
571137
571411
571651
571933
572249
572565
572879
573209
573457
573733
573966
574262
574509
574897
575254
575511
575815
576115
576375
576578
576867
577297
577624
577859
578156
578532
578807
579129
579395
579653
579906
580198
580532
580801
581118
581377
581735
581952
582320
582533
582808
583082
583393
583587
583915
584229
584459
584711
584977
585201
585460
585683
585993
586309
586638
587011
587232
587477
587709
588098
588311
588629
588906
589146
589467
589745
589966
590253
590548
590851
591115
591393
591597
591938
592297
592634
592933
593234
593531
593888
594184
594447
594740
595045
595394
595703
595957
596254
596598
596914
597160
597534
597805
598065
598281
598538
598821
599042
599317
599571
599855
600054
600343
600760
601098
601400
601690
601960
602291
602555
602830
603116
603326
603661
603975
604255
604594
604862
605285
605569
605865
606171
606391
606667
606928
607403
607791
608096
608422
608639
608956
609391
609701
609965
610250
610578
610866
611202
611458
611760
612091
612369
612751
612968
613227
613503
613803
614094
614386
614683
615052
615364
615614
615826
616100
616384
616684
616990
617275
617542
617795
618238
618486
618726
619027
619322
619624
619893
620240
620547
620751
621072
621290
621562
621774
622027
622290
622514
622796
623049
623325
623648
623920
624217
624506
624816
625109
625390
625707
625906
626225
626517
626807
627111
627333
627659
627993
628186
628577
628772
629046
629329
629604
629835
630050
630353
630667
630963
631250
631548
631845
632147
632438
632731
633035
633324
633615
633911
634199
634428
634714
634992
635412
635713
635932
636197
636467
636788
637066
637502
637807
638108
638363
638750
638991
639214
639579
639807
640170
640468
640790
641082
641298
641670
641976
642310
642606
642845
643199
643427
643653
643983
644340
644649
644934
645229
645449
645760
646066
646263
646562
646835
647145
647440
647882
648131
648401
648698
648833
649177
649451
649740
