297
611
885
1204
1414
1706
1921
2204
2475
2721
3007
3227
3454
3861
4274
4577
4900
5201
5568
5844
6056
6352
6684
7115
7384
7797
8209
8445
8728
8987
9233
9539
9880
10232
10529
10788
11020
11274
11540
11804
12144
12345
12703
13010
13312
13604
13862
14138
14413
14640
14960
15228
15576
15842
16091
16359
16615
16889
17194
17467
17748
17990
18288
18565
18790
19169
19455
19823
20028
20279
20651
20943
21176
21594
21838
22046
22297
22545
22839
23052
23350
23630
23877
24227
24435
24746
25013
25308
25512
25828
26099
26438
26649
26940
27170
27473
27693
27984
28302
28517
28780
29083
29351
29593
29840
30051
30376
30672
30965
31183
31451
31723
31978
32283
32631
32991
33244
33566
33847
34119
34411
34648
34851
35212
35449
35656
35904
36246
36456
36796
37048
37351
37657
37888
38179
38402
38685
38940
39232
39523
39746
40019
40325
40638
40991
41234
41495
41926
42221
42446
42890
43092
43419
43691
44022
44246
44534
44852
45193
45455
45676
45899
46130
46443
46784
47111
47437
47656
47960
48231
48507
48782
49105
49363
49579
49806
50129
50511
50739
51106
51363
51702
52016
52296
52586
52954
53275
53602
53841
54097
54301
54630
54909
55158
55425
55718
55929
56298
56577
56897
57151
57398
57698
57934
58178
58396
58663
58951
59246
59627
59862
60192
60460
60749
61016
61348
61678
61907
62205
62436
62728
63023
63187
63578
63903
64128
64381
64694
64988
65378
65654
65960
66313
66546
66832
67101
67418
67706
67888
68207
68444
68719
68968
69212
69483
69777
70064
70324
70587
70910
71247
71558
71815
72109
72454
72733
73108
73320
73634
73881
74120
74399
74647
74933
75272
75542
75806
76104
76402
76923
77207
77484
77697
77955
78230
78480
78775
78980
79364
79611
79855
80185
80457
80723
81024
81377
81754
82018
82283
82511
82800
83158
83370
83695
83963
84278
84584
84852
85072
85352
85564
85889
86192
86466
86692
87010
87395
87666
87917
88218
88503
88707
89038
89309
89565
89871
90187
90579
90886
91228
91449
91646
91858
92294
92566
92775
93026
93327
93610
93853
94097
94303
94614
94961
95252
95531
95857
96139
96442
96846
97065
97351
97634
97914
98229
98437
98749
98946
99244
99534
99809
100031
100384
100591
100859
101088
101345
101568
101948
102317
102553
102833
103089
103411
103686
103905
104212
104429
104699
105010
105251
105521
105739
106026
106331
106598
106981
107315
107621
107915
108181
108409
109337
109691
110006
110249
110612
110941
111259
111569
111875
112183
112454
112824
113126
113440
113746
114056
114349
114680
114962
115298
115590
115921
116209
116541
117118
117413
117701
117996
118254
118530
118763
119060
119359
119655
119933
120166
120453
120728
120964
121275
121595
121847
122172
122482
122807
123011
123277
123621
123917
124140
124435
124741
124970
125271
125535
125856
126096
126339
126580
126806
127043
127349
127630
127844
128107
128375
128641
128881
129157
129496
129777
130064
130335
130622
130953
131226
131559
131854
132102
132332
132627
132993
133221
133546
133818
134072
134304
134517
134946
135169
135441
135748
135955
136231
136500
136732
136998
137302
137606
137834
138111
138374
138673
138935
139185
139464
139745
140047
140338
140671
140874
141177
141488
141744
142097
142332
142596
142832
143181
143435
143652
143945
144221
144425
144721
144945
145201
145439
145679
145924
146282
146593
146838
147072
147315
147585
147802
148066
148344
148806
149072
149401
149616
149870
150183
150470
150722
150968
151304
151574
151803
152058
152284
152552
152776
153049
153264
153573
153860
154089
154397
154665
154894
155100
155393
155653
155884
156158
156433
156711
157001
157287
157600
157899
158188
158484
158791
159030
159340
159638
159945
160227
160520
160769
161009
161285
161598
161848
162152
162445
162737
163057
163322
163630
164091
164335
164736
165062
165515
165804
166128
166373
166651
166964
167245
167558
167845
168150
168446
168855
169072
169317
169583
169871
170162
170444
170735
171034
171321
171580
171908
172211
172465
172855
173166
173411
173636
173991
174253
174577
174809
175057
175379
175666
175964
176258
176517
176794
177121
177331
177677
177976
178199
178473
178798
179101
179398
179661
179979
180236
180532
180835
181163
181434
181732
182015
182314
182546
182829
183201
183795
184090
184386
184673
184941
185215
185493
185796
186164
186506
186739
186955
187247
187531
187793
188055
188303
188556
188759
189014
189225
189468
189755
190021
190360
190818
191124
191559
191943
192235
192541
192737
193032
193321
193586
193798
194146
194345
194612
194902
195189
195395
195759
196061
196266
196608
196914
197227
197535
197824
198123
198342
198623
198907
199162
199397
199740
200086
200347
200632
200922
201136
201376
201703
202048
202370
202668
202997
203299
203584
203902
204188
204477
204790
205076
205356
205582
205810
206097
206425
206652
206930
207188
207420
207712
208013
208296
208556
208766
209018
209279
209560
209836
210115
210396
210618
210963
211244
211525
211790
212097
212376
212609
212943
213240
213527
213780
214039
214343
214682
214953
215246
215540
215801
216014
216252
216521
216804
217041
217263
217520
217795
218035
218450
218765
219125
219487
219694
220045
220246
220515
220811
221056
221275
221528
221803
222058
222338
222585
222847
223072
223360
223562
223853
224168
224410
224707
224975
225272
225479
225775
226062
226284
226580
226812
227075
227370
227653
227962
228227
228450
228725
228991
229266
229472
229736
229999
230239
230517
230724
231072
231284
231641
232002
232222
232462
232739
233034
233388
233768
234044
234261
234561
234917
235137
235422
235804
236173
236449
236754
237018
237248
237496
237760
237987
238245
238568
238850
239127
239490
239765
240069
240389
240702
240977
241292
241550
241834
242133
242451
242672
242949
243230
243497
243830
244110
244411
244663
244919
245164
245500
245817
246167
246436
246751
247148
247400
247618
247932
248207
248414
248740
249031
249376
249629
249902
250240
250765
251052
251324
251642
251893
252125
252436
252711
252934
253138
253509
253722
254080
254290
254519
254778
255042
255269
255556
255812
256105
256387
256635
256871
257321
257603
257825
258126
258397
258677
258910
259192
259401
259729
259973
260261
260568
260787
261095
261323
261662
261988
262303
262568
262919
263237
263445
263785
264008
264321
264526
264841
265155
265461
265661
265973
266206
266542
267013
267238
267514
267751
268024
268233
268449
268786
269080
269388
269669
269897
270153
270466
270771
270970
271320
271585
271824
272116
272334
272640
272937
273210
273475
273717
273955
274289
274621
274880
275185
275508
275839
276104
276348
276707
276979
277316
277512
277852
278057
278336
278598
278791
279041
279264
279576
279844
280176
280477
280869
281151
281412
281666
282050
282335
282650
282931
283255
283598
283860
284057
284378
284584
284899
285192
285412
285612
285877
286146
286435
286653
286939
287155
287619
287939
288232
288473
288766
289081
289353
289683
289971
290254
290517
290746
291020
291323
291553
291862
292172
292510
292839
293197
293458
293694
293939
294222
294484
294801
295129
295346
295672
295938
296257
296520
296767
297068
297355
297592
297820
298085
298601
298817
299192
299390
299760
300077
301000
301332
301580
301940
302495
302794
303142
303426
303761
304380
304680
304988
305285
305563
306100
306419
306745
307021
307321
307565
307837
308102
308355
308580
308850
309150
309380
309662
309959
310267
310598
310931
311225
311450
311713
311941
312212
312510
312707
312955
313226
313437
313744
314151
314370
314621
314850
315163
315358
315637
315916
316137
316388
316633
316869
317189
317384
317703
317979
318259
318521
318774
319089
319339
319632
319929
320198
320455
320687
320948
321257
321831
322160
322725
323046
323605
323905
324467
324758
325302
325595
326125
326449
326736
327008
327280
327534
327814
328028
328325
328563
328876
329146
329350
329624
329887
330122
330449
330767
331324
331638
332185
332484
333031
333321
333881
334165
334698
334997
335539
335832
336380
336683
337217
337519
338047
338336
338883
339170
339463
339729
340325
340635
341199
341498
342035
342330
342865
343154
343683
343982
344515
344810
345351
345630
346028
346583
346880
347424
347722
348245
348806
349093
349617
349918
350451
350742
351281
351830
352123
352657
352944
353485
354020
354324
354849
355151
355680
355977
356493
356784
357303
357601
358134
358438
358959
359265
359809
360337
360878
361401
361694
362212
362507
363033
363587
363872
364396
364945
365149
365494
366039
366322
366845
367140
367659
367955
368479
369027
369567
370105
370310
370652
371193
371482
372015
372550
373103
373388
373901
374181
374479
374769
375060
375363
375670
376227
376786
377332
377725
377974
378169
378435
378625
378840
379108
379356
379607
379892
380123
380401
380638
380878
381329
381662
381971
382284
382590
382903
383212
383514
384071
384378
384681
384984
385295
385598
385905
386210
386518
386832
387366
387929
388471
388775
389077
389389
389909
390226
390531
390741
391000
391375
391935
392478
393038
393577
394116
394415
394702
395261
395554
396070
396372
396897
397196
397506
398038
398337
398868
399175
399476
399767
400302
400844
401387
401886
402186
402522
402782
403009
403235
403484
403724
403931
404227
404498
404854
405208
405507
405745
405988
406200
406458
406668
406911
407227
407484
407711
408005
408208
408500
408747
408999
409304
409590
409885
410131
410369
410680
411029
411351
411657
411859
412210
412416
412744
413294
413614
413912
414216
414512
414831
415147
415457
415810
416109
416426
416751
417067
417387
417960
418519
418837
419145
419447
419757
420065
420376
420954
421519
422067
422619
423158
423461
423767
424061
424595
424908
425205
425510
425812
426121
426433
426982
427541
428089
428646
428843
429188
429734
430028
430317
430613
430916
431211
431514
431826
432148
432468
433040
433614
433937
434244
434554
435079
435385
435693
436005
436539
437105
437648
437850
438203
438407
438749
438942
439168
439397
439823
440115
440347
440580
440858
441146
441423
441642
441937
442253
442541
442805
443034
443347
443662
443937
444201
444458
444765
445068
445369
445705
445938
446203
446430
446696
446953
447258
447515
447866
448176
448403
448675
448992
449309
449634
449916
450129
450431
450706
451149
451495
451769
452006
452233
452496
452697
453066
453382
453649
453989
454512
454798
454989
455228
455473
455689
455972
456307
456534
456752
457080
457360
457634
457949
458187
458461
458774
459048
459297
459585
459906
460113
460407
460693
460925
461226
461508
461761
462065
462367
462594
462864
463101
463418
463674
463898
464180
464431
464754
465085
465445
465828
466130
466391
466688
466969
467187
467450
467748
468028
468342
468559
468845
469143
469454
469842
470167
470444
470739
470960
471318
471663
471982
472255
472583
472835
473091
473323
473541
473854
474115
474332
474699
474972
475205
475502
475778
475980
476294
476582
476873
477088
477455
477771
478094
478294
478573
478875
479186
479456
479685
480003
481108
481434
481715
482008
482547
482834
483367
483662
484209
484500
484990
485400
485975
486274
486814
487106
487655
487944
488490
488787
489322
489615
490164
490455
490985
491284
491819
492112
492655
493213
493516
494030
494331
494870
495160
495696
495998
496513
497066
497275
497627
497829
498183
498752
499303
499866
500414
500619
500973
501166
501521
501717
502016
502246
502483
502778
502986
503296
503580
503822
504106
504423
504763
505057
505343
505756
506034
506279
506514
506744
507019
507314
507658
507923
508178
508484
508801
509070
509306
509610
509884
510113
510352
510607
510890
511343
511638
511946
512157
512444
512735
512987
513239
513514
513806
514136
514468
514706
514988
515324
515648
515906
516103
516460
516736
516933
517261
517602
517914
518272
518597
518918
519179
519419
519723
520076
520414
520712
520996
521238
521438
521784
522104
522366
522566
522890
523174
523456
523746
523953
524198
524507
524752
525010
525278
525602
525820
526032
526357
526686
527008
527393
527674
527915
528181
528500
528799
529043
529296
529635
529960
530221
530431
530714
530926
531221
531483
531715
531923
532178
532427
532762
532974
533251
533469
533756
534095
534379
534666
534926
535128
535424
535610
535974
536245
536498
536789
537087
537450
537732
537970
538271
538593
538827
539153
539446
539723
539966
540276
540584
540885
541107
541431
541733
542051
542414
542719
543016
543271
543611
543952
544207
544481
544691
545085
545443
545804
546120
546379
546570
546773
547052
547351
547557
547878
548207
548523
548820
549173
549515
549772
550033
550306
550531
550958
551195
551408
551731
552049
552403
552675
553043
553245
553657
553953
554234
554451
554675
555011
555206
555475
555762
556087
556519
556850
557125
557368
557622
557822
558164
558361
558672
558939
559193
559446
559707
560048
560356
560610
560945
561267
561508
561825
562140
562368
562621
562905
563308
563609
563944
564280
564605
564901
565122
565325
565543
565800
566064
566377
566775
567107
567388
567632
567908
568184
568530
568858
569210
569450
569688
569987
570248
570551
570885
571132
571406
571647
571930
572246
572561
572875
573205
573453
573728
573961
574257
574505
574895
575251
575507
575811
576111
576371
576590
576862
577294
577620
577854
578151
578527
578802
579124
579390
579649
579901
580193
580528
580798
581113
581372
581731
581948
582315
582527
582804
583077
583389
583588
583912
584224
584454
584708
584972
585196
585455
585680
585989
586304
586635
587007
587228
587473
587705
588095
588307
588626
588902
589142
589463
589740
589961
590250
590543
590847
591112
591390
591609
591933
592293
592629
592927
593230
593526
593884
594181
594442
594735
595039
595390
595698
595950
596248
596594
596910
597171
597529
597801
598059
598276
598535
598816
599037
599312
599566
599851
600065
600340
600757
601095
601396
601687
601957
602286
602551
602825
603112
603320
603656
603971
604250
604589
604857
605282
605563
605859
606166
606384
606661
606923
607398
607785
608091
608419
608636
608951
609387
609697
609961
610244
610574
610863
611197
611454
611757
612087
612365
612746
612964
613223
613498
613800
614090
614381
614679
615049
615362
615611
615823
616097
616381
616681
616987
617271
617539
617793
618235
618484
618723
619024
619320
619620
619889
620236
620544
620764
621068
621285
621558
621770
622023
622286
622509
622793
623044
623321
623644
623916
624213
624502
624812
625104
625386
625703
625919
626221
626513
626803
627107
627329
627657
627989
628198
628574
628770
629044
629324
629601
629830
630046
630348
630663
630959
631246
631543
631840
632144
632433
632726
633029
633320
633612
633906
634194
634424
634711
634988
635410
635712
635930
636193
636463
636784
637063
637500
637804
638105
638360
638748
638988
639210
639576
639803
640168
640464
640786
641079
641294
641664
641972
642307
642602
642840
643196
643421
643647
643980
644336
644645
644928
645223
645443
645755
646061
646271
646557
646830
647140
647436
647878
648127
648396
648690
648835
649172
649446
649735
