319
618
921
1218
1524
1822
2125
2429
2729
3033
3336
3628
3932
4232
4537
4838
5133
5442
5748
6039
6345
6644
6949
7251
7541
7846
8150
8446
8745
9043
9349
9644
9940
10243
10542
10840
11145
11442
11748
12046
12341
12650
12952
13250
13556
13852
14160
14459
14760
15071
15371
15664
15968
16264
16557
16851
17146
17448
17747
17940
18294
18603
18913
19220
19528
19845
20152
20447
20745
21053
21355
21649
21950
22254
22549
22848
23152
23461
23765
24066
24377
24684
24984
25289
25593
25900
26206
26511
26818
27125
27432
27735
28045
28348
28647
28957
29260
29555
29855
30151
30452
30748
31036
31348
31657
31951
32251
32549
32851
33149
33442
33745
34044
34335
34633
34932
35242
35549
35854
36165
36472
36778
37083
37393
37700
38008
38319
38626
38929
39240
39544
39852
40157
40462
40773
41073
41370
41679
41984
42286
42583
42880
43189
43489
43787
44088
44397
44703
45002
45301
45612
45918
46215
46511
46810
47113
47408
47705
48012
48315
48615
48912
49217
49526
49828
50132
50436
50734
51034
51333
51636
51939
52241
52545
52852
53150
53455
53766
54072
54369
54665
54976
55281
55576
55874
56178
56485
56783
57081
57392
57695
57995
58297
58600
58902
59202
59501
59801
60098
60395
60698
61007
61305
61607
61921
62226
62524
62822
63128
63437
63731
64028
64338
64640
64936
65234
65534
65843
66142
66443
66753
67051
67348
67647
67948
68252
68549
68850
69154
69451
69753
70057
70358
70658
70959
71265
71562
71856
72156
72456
72759
73054
73348
73665
73969
74265
74569
74872
75182
75482
75774
76087
76397
76694
76996
77300
77614
77916
78218
78529
78838
79137
79444
79753
80057
80361
80672
80986
81298
81612
81921
82237
82537
82835
83155
83463
83771
84081
84388
84706
85022
85332
85651
85964
86280
86599
86928
87249
87571
87904
88225
88535
88851
89171
89487
89799
90118
90430
90734
91042
91347
91661
91966
92275
92593
92905
93215
93522
93834
94149
94455
94765
95077
95386
95703
96012
96325
96640
96955
97274
97587
97904
98222
98555
98880
99210
99559
99888
100215
100543
100873
101200
101517
101849
102167
102479
102793
103103
103419
103730
104038
104351
104658
104960
105270
105584
105888
106197
106519
106835
107145
107454
107769
108088
108395
108712
109034
109346
109659
109972
110280
110587
110888
111191
111500
111793
112104
112412
112724
113031
113330
113638
113948
114246
114542
114738
115097
115407
115714
115990
116140
116463
116786
117085
117393
117706
118008
118326
118636
118945
119255
119556
119861
120159
120346
120713
121037
121335
121636
121941
122242
122541
122839
123140
123440
123733
124028
124330
124628
124925
125226
125532
125837
126148
126466
126799
127119
127434
127759
128071
128376
128693
129008
129317
129626
129946
130267
130579
130893
131209
131533
131853
132187
132533
132866
133197
133520
133851
134177
134500
134822
135140
135462
135779
136103
136422
136737
137061
137374
137679
137997
138312
138621
138931
139247
139563
139878
140194
140507
140829
141143
141455
141778
142092
142401
142712
143019
143330
143632
143931
144237
144428
144769
145082
145388
145694
145987
146279
146577
146867
147065
147279
147438
147767
148059
148278
148428
148564
148789
149115
149423
149618
149761
149897
150051
150347
150685
150865
151018
151154
151561
151889
152213
152477
152853
153181
153520
153842
154155
154477
154799
155116
155312
155456
155691
156079
156420
156753
157088
157425
157753
158087
158362
158752
159084
159411
159737
160052
160373
160696
161009
161336
161645
161977
162287
162593
162906
163214
163512
163821
164137
164452
164772
165094
165413
165735
166060
166379
166707
167031
167353
167675
167988
168308
168623
168948
169269
169588
169922
170250
170581
170916
171246
171573
171891
172219
172541
172854
173180
173515
173840
174160
174497
174829
175155
175477
175800
176131
176453
176779
177116
177437
177772
178103
178438
178767
179098
179439
179775
180119
180456
180790
181119
181452
181793
182129
182469
182809
183148
183473
183806
184147
184478
184807
185131
185465
185787
186109
186446
186771
187100
187428
187761
188086
188410
188744
189061
189375
189705
190041
190378
190711
191054
191392
191727
192064
192405
192737
193062
193402
193726
194052
194380
194710
195036
195359
195697
196028
196356
196688
197019
197348
197679
198017
198342
198661
198982
199320
199644
199963
200202
200579
200912
201229
201551
201879
202198
202522
202851
203174
203498
203823
204149
204475
204798
205131
205455
205777
206108
206433
206746
207062
207392
207717
208040
208366
208703
209039
209371
209717
210056
210386
210716
211050
211385
211711
212047
212385
212710
213039
213374
213710
214042
214383
214722
215050
215385
215720
216051
216386
216724
217058
217388
217721
218055
218389
218715
219052
219386
219705
220029
220348
220675
220985
221297
221624
221940
222257
222563
222889
223201
223512
223828
224022
224375
224679
224986
225291
225496
225839
226157
226460
226761
227067
227384
227699
228003
228189
228332
228651
228975
229293
229495
229874
230198
230517
230840
231158
231478
231803
231994
232140
232292
232464
232720
233106
233432
233605
233751
233898
234235
234592
234920
235260
235601
235925
236262
236594
236937
237282
237624
237966
238308
238653
238990
239333
239664
239995
240329
240663
241016
241356
241694
242036
242385
242731
243073
243420
243769
244116
244459
244819
245163
245496
245839
246184
246534
246866
247210
247555
247895
248239
248586
248930
249273
249621
249964
250311
250663
251017
251360
251708
252058
252396
252740
253084
253432
253769
254114
254456
254790
255128
255475
255812
256149
256495
256848
257190
257540
257902
258244
258579
258933
259270
259600
259924
260261
260582
260907
261243
261561
261889
262218
262545
262873
263199
263533
263858
264174
264502
264834
265158
265481
265820
266152
266470
266789
267131
267465
267793
268147
268496
268831
269170
269511
269854
270188
270528
270853
271175
271508
271844
272182
272524
272874
273218
273554
273902
274249
274586
274918
275265
275600
275926
276258
276598
276935
277261
277604
277934
278269
278602
278931
279262
279592
279937
280269
280596
280926
281261
281594
281920
282256
282594
282922
283239
283572
283903
284219
284546
284874
285207
285535
285878
286225
286556
286904
287239
287561
287896
288236
288564
288890
289234
289578
289906
290243
290585
290926
291261
291608
291945
292273
292599
292931
293251
293565
293899
294220
294542
294873
295204
295531
295851
296048
296424
296753
297073
297394
297728
298061
298392
298616
298988
299333
299665
299989
300226
300590
300924
301242
301552
301870
302205
302541
302856
303186
303516
303846
304181
304514
304744
305128
305469
305803
306126
306428
306780
307112
307437
307622
307770
308010
308368
308716
309056
309400
309600
309981
310340
310681
311017
311365
311720
312063
312399
312751
313089
313423
313765
314114
314460
314807
315166
315519
315872
316222
316569
316907
317264
317612
317951
318294
318644
318989
319323
319672
320010
320346
320687
321033
321372
321708
322043
322376
322709
323040
323373
323695
324016
324352
324675
324998
325334
325682
326014
326340
326680
327008
327346
327674
328010
328340
328554
328949
329298
329636
329975
330310
330638
330974
331318
331662
331994
332327
332678
333009
333338
333541
333930
334271
334605
334941
335273
335599
335939
336266
336581
336913
337254
337586
337910
338252
338592
338928
339261
339608
339957
340304
340655
341012
341361
341719
342089
342459
342837
343201
343556
343920
344281
344635
344973
345327
345687
346023
346369
346722
347057
347393
347732
348069
348404
348751
349107
349456
349822
350192
350554
350925
351302
351675
352037
352411
352769
353118
353470
353820
354164
354508
354850
355182
355524
355862
356194
356531
356887
357237
357580
357926
358283
358633
358969
359320
359655
359991
360331
360669
360914
361286
361634
361969
362290
362622
362967
363296
363623
363957
364300
364638
364968
365164
365322
365693
366043
366385
366715
366913
367302
367647
367986
368314
368660
368998
369332
369668
370012
370364
370707
371063
371412
371763
372118
372470
372817
373169
373525
373870
374229
374589
374955
375310
375674
376020
376357
376700
377051
377397
377739
378099
378443
378781
379128
379467
379801
380128
380469
380801
381140
381484
381836
382178
382529
382882
383227
383571
383914
384264
384611
384976
385331
385678
386043
386410
386760
387108
387456
387796
388141
388481
388821
389157
389494
389829
390170
390506
390841
391173
391468
391822
392153
392471
392794
392987
393130
393501
393823
394157
394463
394804
395132
395457
395657
395867
396246
396593
396921
397137
397294
397665
398019
398347
398680
399032
399369
399702
399891
400044
400423
400763
401094
401427
401759
402093
402420
402748
403079
403425
403761
404077
404393
404715
405046
405362
405668
406008
406331
406652
406973
407305
407636
407960
408300
408633
408965
409303
409654
409991
410337
410684
411023
411351
411701
412055
412391
412730
413077
413413
413747
414075
414415
414738
415062
415396
415721
416048
416371
416642
416801
417148
417499
417838
418159
418501
418842
419175
419500
419839
420184
420514
420845
421181
421522
421849
422192
422535
422868
423202
423538
423867
424183
424516
424839
425156
425480
425813
426146
426482
426826
427170
427511
427847
428194
428531
428861
429206
429537
429858
430184
430517
430854
431176
431514
431848
432174
432514
432856
433198
433535
433883
434220
434558
434898
435236
435562
435886
436220
436545
436804
437175
437510
437836
438032
438411
438761
439093
439434
439764
440101
440423
440747
441074
441376
441694
441900
442256
442567
442877
443100
443256
443599
443919
444245
444436
444588
444728
444902
445256
445601
445850
446038
446380
446751
447096
447291
447430
447748
448094
448424
448756
449084
449408
449725
449942
450100
450474
450816
451157
451499
451841
452180
452521
452856
453189
453522
453869
454199
454437
454832
455164
455482
455760
456099
456421
456734
457043
457350
457648
457949
458232
458405
458741
459081
459419
459749
460078
460419
460751
461077
461397
461728
462051
462374
462703
463029
463359
463677
464007
464334
464640
464960
465280
465598
465917
466229
466555
466879
467194
467512
467733
468113
468444
468779
469100
469418
469740
470056
470377
470695
471020
471348
471665
471991
472318
472651
472975
473295
473636
473963
474292
474626
474974
475304
475634
475972
476303
476637
476975
477316
477651
477985
478332
478662
478987
479309
479635
479958
480285
480615
480940
481269
481602
481947
482273
482601
482940
483276
483606
483937
484271
484593
484919
485248
485575
485905
486227
486565
486890
487217
487552
487870
488063
488419
488745
489060
489365
489698
490030
490347
490668
490996
491320
491636
491961
492291
492615
492935
493259
493587
493908
494241
494570
494888
495216
495542
495864
496180
496501
496827
497149
497466
497791
498119
498440
498755
499081
499401
499714
500028
500340
500643
500944
501245
501549
501854
502165
502479
502778
503120
503436
503768
504089
504402
504725
505046
505366
505685
506011
506339
506659
506980
507299
507613
507915
508224
508538
508846
509151
509460
509780
510097
510407
510735
511067
511260
511424
511725
512130
512481
512812
513151
513482
513806
514129
514453
514770
515088
515426
515745
516060
516388
516718
517036
517349
517675
517989
518295
518484
518834
519146
519445
519746
520057
520357
520647
520946
521255
521566
521867
522177
522486
522790
523094
523399
523701
523999
524291
524599
524897
525188
525486
525785
526098
526408
526720
527043
527357
527669
527988
528312
528624
528937
529261
529576
529885
530194
530513
530831
531144
531457
531772
532076
532381
532682
532998
533302
533594
533902
534210
534510
534818
535044
535413
535727
536032
536350
536661
536966
537275
537597
537913
538226
538548
538864
539176
539494
539815
540132
540445
540767
541092
541404
541727
542050
542373
542689
543000
543332
543648
543949
544256
544573
544882
545189
545508
545827
546140
546454
546770
547089
547399
547707
548021
548328
548636
548948
549266
549576
549884
550207
550524
550832
551149
551468
551783
552092
552408
552725
553028
553331
553629
553931
554221
554407
554755
555050
555345
555530
555878
556195
556503
556806
557129
557447
557749
557977
558155
558527
558871
559190
559523
559850
560164
560476
560787
561091
561391
561701
562011
562325
562638
562947
563263
563578
563890
564209
564517
564831
565141
565454
565764
566071
566390
566703
567009
567327
567646
567964
568274
568585
568905
569221
569527
569838
570165
570479
570789
571118
571441
571758
572079
572395
572715
573029
573350
573669
573983
574301
574615
574937
575248
575552
575870
576182
576493
576806
577122
577431
577737
578061
578373
578678
578984
579296
579614
579918
580234
580562
580874
581194
581515
581833
582151
582462
582784
583106
583423
583741
584069
584390
584708
585035
585350
585659
585978
586297
586610
586920
587244
587560
587869
588186
588498
588814
589127
589443
589761
590067
590378
590691
591009
591319
591626
591943
592255
592559
592861
593172
593493
593793
594106
594421
594724
595039
595345
595655
595966
596272
596591
596900
597214
597538
597855
598172
598494
598813
599135
599453
599773
600091
600411
600683
601039
601370
601688
602002
602317
602640
602951
603255
603585
603907
604217
604536
604859
605190
605503
605821
606150
606473
606788
607106
607434
607750
608066
608383
608691
609002
609310
609632
609947
610259
610585
610899
611083
611451
611771
612086
612398
612715
613029
613335
613642
613959
614278
614590
614907
615239
615554
615863
616172
616495
616811
617119
617442
617764
618083
618399
618715
619040
619361
619690
620019
620334
620659
620975
621288
621599
621917
622233
622547
622866
623188
623520
623841
624155
624481
624796
625107
625424
625747
626061
626368
626690
627005
627307
627619
627930
628249
628563
628872
629190
629505
629819
630134
630458
630777
631094
631426
631743
632058
632373
632686
633003
633309
633617
633926
634228
634537
634844
635161
635474
635784
636109
636426
636616
636990
637321
637645
637967
638301
638622
638930
639249
639559
639882
640192
640500
640819
641136
641448
641761
642086
642407
642720
643045
643229
643591
643918
644241
644568
644892
645215
645542
645741
646111
646450
646783
647094
647408
647728
648037
648343
648654
648970
649281
649587
649909
