221
455
608
925
1245
1429
1805
2067
2363
2522
2827
3068
3526
3800
4129
4491
4837
5096
5358
5533
5848
6102
6363
6515
6878
7215
7519
7685
8071
8303
8547
8817
9246
9517
9787
10102
10376
10649
10819
11127
11385
11684
11854
12149
12393
12743
13205
13498
13739
14001
14246
14542
14808
14965
15333
15569
15833
16086
16538
16927
17200
17430
17682
17911
18205
18466
18757
19071
19263
19638
19870
20297
20652
20914
21243
21491
21757
21982
22241
22399
22730
22993
23326
23763
24106
24361
24602
24880
25198
25378
25700
25951
26343
26620
26869
27155
27311
27691
27958
28187
28432
28568
29057
29327
29632
30120
30428
30663
30881
31125
31547
31795
32160
32439
32609
32991
33267
33429
33749
34014
34279
34676
34969
35228
35670
35932
36202
36387
36601
36768
37005
37257
37402
37851
38102
38422
38692
38942
39245
39717
40017
40266
40512
40682
41018
41343
41569
41951
42334
42658
42829
43128
43366
43591
43809
44043
44340
44507
44841
45116
45292
45617
45865
46157
46311
46633
46906
47147
47557
47866
48135
48300
48570
48848
49157
49331
49626
49849
50228
50565
51055
51386
51543
51843
52137
52300
52598
52870
53114
53459
53731
53983
54253
54619
54869
55275
55620
55864
56143
56358
56652
56895
57350
57614
57846
58015
58343
58574
58820
58971
59263
59495
59775
60037
60457
60693
61097
61413
61728
61896
62351
62643
62802
63125
63365
63593
63854
64013
64302
64540
64930
65242
65470
65725
65885
66287
66742
67050
67208
67513
67762
68037
68210
68505
68982
69314
69558
70001
70325
70561
70893
71196
71359
71696
72012
72293
72754
73029
73103
73346
73598
73763
74091
74608
74897
75059
75359
75602
75826
76049
76304
76563
76757
77117
77399
77680
77849
78109
78322
78733
79057
79307
79674
79946
80116
80436
80657
80883
81200
81368
81717
82054
82211
82531
82766
82987
83246
83412
83745
83967
84264
84717
85052
85301
85555
85723
86036
86282
86519
86672
86963
87221
87573
87746
88109
88340
88606
88756
89172
89346
89669
89925
90340
90588
90819
91069
91291
91502
91726
91968
92249
92517
92672
92975
93194
93419
93587
93983
94239
94487
94641
94974
95205
95457
95723
95959
96193
96360
96715
96948
97218
97511
97663
97997
98233
98447
98688
98864
99167
99373
99659
99910
100298
100603
100893
101058
101421
101668
101901
102117
102283
102592
102869
103046
103354
103614
103899
104053
104371
104654
104814
105183
105516
105674
106100
106339
106549
106776
106939
107247
107491
107734
107885
108179
108496
108646
108943
109576
109808
110061
110213
110516
110728
111083
111346
111639
111806
112185
112467
112615
112877
113111
113378
113556
113853
114095
114343
114621
114985
115210
115448
115707
115930
116160
116333
116612
116836
117144
117640
117949
118113
118469
118709
118937
119237
119472
119709
119864
120224
120475
120770
121099
121237
121546
121802
122049
122293
122571
122967
123404
123637
123883
124344
124588
124901
125319
125627
125910
126083
126433
126661
126879
127123
127292
127627
128041
128342
128487
128866
129087
129314
129575
129810
130077
130299
130548
130729
131100
131371
131546
131873
132198
132419
132640
132891
133059
133363
133798
134030
134246
134402
134674
135127
135409
135683
135858
136185
136398
136634
136782
137076
137326
137574
137736
138070
138355
138515
138806
139038
139361
139584
139818
140036
140359
140596
140803
140976
141277
141617
141932
142113
142484
142713
142943
143326
143620
143891
144132
144355
144531
144807
145082
145249
145565
145851
146027
146404
146633
146871
147101
147306
147583
147759
148091
148326
148553
148796
149018
149261
149433
149740
150004
150191
150527
150809
151113
151264
151599
151842
152164
152332
152697
152958
153133
153397
153653
153874
154101
154268
154593
154823
155111
155365
155585
155833
156297
156670
156936
157188
157409
157585
157851
158057
158289
158619
158847
159101
159344
159589
159819
160047
160255
160474
160703
160881
161280
161542
161773
161952
162208
162424
162644
162833
163126
163364
163627
163926
164081
164418
164672
164843
165167
165451
165678
165926
166090
166446
166682
166932
167113
167447
167701
167934
168280
168519
168756
168916
169218
169438
169677
169841
170160
170427
170663
170937
171334
171674
171978
172152
172545
172774
173028
173263
173583
173887
174059
174440
174733
174900
175192
175426
175715
175968
176288
176540
176808
177029
177187
177323
177725
178008
178194
178561
178816
179053
179358
179582
179982
180299
180567
180835
181012
181361
181599
181845
182318
182655
182960
183132
183498
183928
184174
184375
184639
184889
185138
185395
185557
185973
186240
186497
186665
186969
187269
187443
187827
188056
188258
188471
188644
188937
189178
189421
189585
189878
190142
190520
190789
191076
191250
191620
191871
192137
192305
192598
192846
193177
193433
193701
193886
194133
194383
194684
194943
195171
195397
195569
195872
196190
196350
196522
196862
197295
197595
197745
198056
198188
198371
198611
198809
199012
199255
199447
199682
199857
200236
200488
200705
200867
201173
201450
201611
201975
202259
202505
202784
202949
203226
203443
203651
203829
204092
204428
204714
204943
205324
205611
205885
206045
206358
206653
206902
207088
207370
207592
207817
207981
208377
208602
208879
209044
209342
209603
209768
210022
210276
210508
210775
211060
211375
211535
211851
212095
212342
212520
212770
213000
213256
213429
213817
214080
214245
214597
214827
215168
215410
215652
215887
216045
216316
216720
216995
217164
217531
217798
218052
218223
218495
218729
218955
219203
219424
219710
219882
220082
220221
220585
220832
221087
221268
221631
221882
222129
222358
222526
222816
223036
223264
223432
223708
224059
224329
224538
224945
225239
225540
225819
226052
226336
226668
226850
227198
227309
227685
227957
228208
228450
228730
228933
229150
229403
229607
229906
230173
230406
230702
230934
231083
231432
231649
231828
232118
232382
232737
232974
233215
233384
233669
233896
234137
234308
234689
234927
235185
235564
235820
236083
236253
236577
236859
237038
237343
237690
237950
238230
238382
238713
238942
239212
239377
239690
239918
240153
240379
240584
240825
240994
241349
241631
241805
242090
242311
242523
242730
242906
243226
243497
243686
243994
244237
244460
244689
244905
245174
245342
245625
245866
246106
246280
246586
246793
247051
247341
247630
247808
248121
248389
248553
248862
249146
249321
249607
249861
250194
250480
250642
250913
251152
251374
251585
251760
252144
252352
252618
252839
253018
253216
253391
253721
254007
254173
254482
254755
254914
255197
255595
255853
256117
256291
256615
256895
257068
257348
257555
257791
258014
258256
258503
258750
258923
259186
259405
259644
259872
260120
260291
260610
260834
261081
261247
261522
261783
261945
262267
262561
262734
263070
263303
263555
263733
264129
264369
264619
264799
265091
265354
265578
265811
265969
266269
266502
266756
266985
267210
267468
267713
267909
268145
268369
268705
268984
269219
269394
269691
269940
270170
270335
270614
270823
271073
271234
271593
272010
272419
272659
272898
273065
273340
273546
273802
273983
274345
274827
275188
275562
275817
276060
276309
276479
276760
276989
277232
277468
277703
277875
278169
278486
278748
278978
279215
279582
279828
280050
280344
280544
280816
280965
281285
281533
281769
282125
282402
282582
282794
282928
283282
283538
283764
284010
284164
284536
284808
285204
285425
285802
286046
286283
286559
286869
287039
287260
287457
287609
287764
287999
288235
288500
288665
289173
289414
289580
289872
290116
290516
290780
291028
291278
291444
291736
291916
292220
292616
292879
293172
293466
293633
293786
294136
294378
294592
294835
294994
295293
295542
295770
296111
296372
296539
296870
297272
297611
297935
298399
298556
298751
298972
299287
299490
299782
300025
300237
300411
300701
300975
301134
301526
301774
302026
302205
302483
302703
302935
303095
303263
303430
303739
304114
304466
304723
304949
305191
305499
305668
305992
306355
306593
306818
307028
307195
307475
307704
307972
308415
308715
308870
309222
309471
309689
309984
310218
310482
310891
311143
311422
311587
311847
312074
312348
312517
312855
313089
313294
313470
313737
313951
314187
314369
314665
314924
315215
315440
315762
316016
316252
316417
316720
316973
317276
317442
317770
317981
318173
318457
318695
318942
319116
319436
319676
319912
320147
320410
320662
320947
321214
321466
321627
321988
322215
322471
322711
322932
323165
323343
323695
323981
324138
324486
324743
325056
325285
325508
325799
325969
326252
326567
326719
327136
327422
327658
327884
328047
328550
329033
329375
329702
329961
330200
330429
330656
330809
331100
331369
331544
332038
332300
332530
332712
333075
333288
333557
333809
334053
334305
334474
334879
335091
335319
335578
335813
336105
336381
336629
336857
337105
337465
337756
337921
338262
338505
338751
338988
339143
339353
339690
339906
340142
340374
340653
340893
341170
341327
341682
341925
342310
342546
342803
342975
343300
343538
343828
344088
344260
344518
344746
344968
345146
345447
345694
345933
346156
346395
346615
346832
347080
347471
347671
348108
348573
348874
349037
349352
349626
349782
350106
350538
350864
351116
351326
351622
351867
352173
352387
352595
352796
353008
353254
353528
353814
353977
354308
354532
354761
354919
355270
355499
355758
355986
356213
356400
356663
356897
357122
357287
357617
358014
358352
358593
358807
359047
359204
359469
359753
359917
360291
360535
360780
360940
361271
361514
361908
362190
362357
362744
362995
363216
363636
363933
364179
364409
364673
364837
365151
365395
365558
365879
366188
366345
366696
366935
367234
367386
367682
367919
368091
368384
368555
369011
369267
369704
369996
370232
370470
370652
371010
371305
371479
371840
372065
372286
372529
372711
373044
373370
373541
373909
374165
374465
374740
374999
375176
375528
375871
376106
376416
376570
376865
377106
377341
377573
377747
378046
378425
378656
378896
379092
379364
379604
379853
380034
380323
380552
380780
380946
381302
381547
381797
381960
382234
382652
382885
383113
383522
383826
384222
384492
384728
384962
385213
385368
385709
385978
386271
386436
386773
387021
387188
387514
387914
388243
388504
388731
388976
389152
389481
389706
389963
390127
390507
390766
391006
391192
391512
391749
391993
392169
392720
393200
393528
393793
394074
394240
394599
395054
395318
395475
395748
396138
396398
396642
396877
397185
397600
397867
398030
398427
398913
399164
399437
399602
399934
400176
400467
400606
400910
401149
401605
401912
402133
402359
402663
402834
403161
403419
403645
403868
404036
404339
404625
404783
405074
405317
405585
405761
406130
406370
406615
406779
407186
407480
407923
408359
408612
408776
409071
409295
409538
409715
410073
410400
410564
410900
411133
411369
411543
411924
412174
412422
412597
412920
413218
413379
413906
414156
414388
414696
414909
415187
415426
415684
415903
416076
416452
416630
416930
417189
417415
417644
417928
418198
418461
418757
418908
419074
419309
419576
419978
420217
420467
420737
420904
421201
421420
421703
422008
422174
422526
422792
423054
423215
423532
423762
423982
424223
424383
424706
424969
425147
425490
425736
425979
426144
426503
426831
427078
427309
427565
427719
428035
428342
428594
428995
429336
429673
429902
430130
430428
430739
430899
431232
431486
431733
431925
432405
432544
432739
432891
433187
433397
433842
434277
434510
434736
435161
435408
435669
435975
436223
436509
436696
437010
437169
437451
437695
437918
438110
438412
438652
439069
439411
439717
439891
440218
440624
440846
441070
441241
441499
441763
441949
442251
442502
442782
442941
443246
443483
443801
444058
444302
444581
444744
445035
445298
445477
445773
446198
446465
446730
447141
447378
447661
447826
448379
448819
449099
449258
449566
449886
450048
450353
450686
450931
451175
451343
451638
451961
452126
452453
452706
453194
453672
453900
454262
454679
454925
455190
455361
455776
456020
456270
456438
456836
457312
457576
457865
458024
458425
458671
458896
459239
459561
459823
459990
460275
460589
460751
461064
461419
461671
461932
462105
462393
462610
462859
463030
463335
463630
463891
464065
464351
464579
464851
465007
465335
465581
465831
466137
466403
466658
466908
467242
467724
467944
468300
468551
468712
469062
469285
469501
469968
470390
470628
470885
471044
471409
471809
472032
472265
472508
472679
472993
473225
473444
473696
473936
474158
474392
474684
474949
475280
475497
475721
476008
476266
476674
477126
477387
477568
477828
478070
478387
478638
479066
479328
479707
480137
480372
480603
480929
481194
481505
481844
481999
482466
482735
483054
483328
483497
483868
484114
484433
484663
484904
485382
485850
486081
486379
486622
486849
487118
487371
487627
487933
488381
488641
488801
489225
489504
489754
489927
490228
490416
490781
491010
491324
491578
491850
492301
492566
492730
493027
493260
493514
493784
494052
494331
494572
494912
495239
495493
495773
496109
496377
496676
496844
497148
497400
497637
497952
498390
498707
498870
499282
499732
499997
500286
500634
500923
501352
501589
502019
502571
502818
503079
503240
503606
504009
504335
504663
504871
505244
505491
505781
506287
506555
506735
507061
507406
507650
507997
508338
508624
509047
509327
509588
509765
510106
510426
510592
510883
511142
511449
511626
511919
512179
512342
512660
512934
513236
513520
513825
514114
514349
514648
514814
515194
515673
515934
516218
516535
516797
517067
517606
517953
518213
518476
518733
518980
519219
519474
519638
519984
520245
520485
521009
521338
521610
521870
522050
522373
522598
522838
523061
523292
523686
524036
524281
524578
524842
525069
525327
525718
525986
526153
526580
527107
527430
527662
527822
528255
528536
528776
528961
529221
529447
529676
529934
530152
530381
530622
530795
531143
531398
531682
531962
532276
532587
532897
533189
533434
533663
533900
534228
534544
534717
535074
535335
535506
536027
536276
536606
536865
537302
537703
538025
538269
538537
538838
539097
539439
539710
539956
540200
540473
540712
540914
541274
541527
541790
542033
542272
542670
543006
543286
543581
543885
544146
544332
544685
545003
545246
545517
545826
546176
546434
546666
546961
547323
547572
547926
548257
548513
548785
549019
549282
549586
549837
550237
550521
550695
551205
551449
551612
551978
552267
552571
552827
553242
553505
553907
554206
554383
554706
555025
555257
555529
555765
556071
556330
556622
556945
557192
557437
557731
557965
558213
558540
558848
559112
559509
559800
559962
560316
560579
560839
561159
561450
561619
561912
562342
562595
562834
563143
563643
563892
564117
564306
564565
564855
565123
565440
565685
566001
566234
566457
566679
566846
567154
567615
568029
568403
568653
568874
569135
569424
569670
569911
570186
570509
570762
571004
571422
571789
572073
572334
572601
572829
572983
573292
573543
573799
574084
574355
574750
574994
575289
575555
575814
576137
576648
576961
577183
577426
577648
577885
578121
578458
578710
578939
579166
579415
579691
579947
580322
580784
581033
581266
581486
581791
582050
582363
582630
582870
583099
583323
583537
583698
584024
584354
584800
585054
585235
585486
585700
585909
586138
586370
586541
586924
587157
587396
587648
587969
588217
588609
588873
589049
589419
589678
589967
590222
590612
590901
591088
591470
591698
591920
592176
592437
592826
593091
593259
593588
593822
594048
594294
594525
594759
595002
595448
595745
595980
596247
596485
596798
597086
597329
597663
597983
598253
598521
598763
598983
599213
599478
599769
600028
600297
600532
600797
600961
601279
601539
601860
602104
602357
602583
602807
603041
603283
603704
603975
604229
604471
604733
604987
605218
605451
605730
605979
606301
606563
606796
607017
607273
607525
607764
608154
608401
608636
608885
609198
609478
609724
609896
610244
610535
610789
611067
611402
611802
612146
612405
612692
613008
613243
613474
613693
613938
614366
614634
614924
615194
615366
615740
616140
616406
616768
617246
617690
617934
618168
618537
618788
618964
619328
619666
619888
620117
620342
620550
620855
621113
621349
621787
622036
622276
622703
622962
623122
623449
623764
624051
624346
624580
624824
625103
625368
625662
626137
626448
626760
626990
627409
627683
628028
628269
628532
628765
629028
629287
629555
629814
630155
630442
630685
630976
631297
631525
631773
632076
632346
632655
632898
633144
633411
633716
633957
634330
634675
634924
635088
635492
635899
636149
636418
636654
636944
637432
637702
638023
638267
638523
638788
639136
639546
639850
640070
640303
640577
640867
641162
641439
641689
641984
642266
642661
642972
643266
643568
643850
644094
644315
644550
644793
645053
645314
645604
645836
646077
646331
646634
647068
647321
647586
647964
648291
648538
648765
648984
649237
649532
649810
