217
440
603
922
1240
1432
1803
2062
2354
2519
2823
3061
3523
3796
4126
4486
4836
5089
5352
5539
5846
6096
6348
6511
6877
7212
7509
7688
8068
8297
8542
8813
9243
9511
9782
10099
10371
10639
10820
11123
11382
11677
11852
12146
12387
12739
13022
13208
13492
13733
13995
14240
14539
14799
14970
15331
15563
15830
16081
16536
16924
17195
17424
17679
17907
18203
18461
18755
19069
19270
19635
19865
20145
20290
20649
20907
21239
21486
21753
21976
22233
22399
22727
22989
23324
23762
24101
24357
24597
24876
25194
25382
25698
25945
26178
26344
26617
26864
27142
27311
27688
27953
28181
28410
28567
29056
29321
29627
29945
30120
30424
30658
30875
31120
31545
31790
32159
32434
32613
32990
33259
33430
33746
34009
34273
34516
34678
34966
35226
35668
35926
36198
36392
36766
36998
37240
37402
37848
38096
38420
38689
38939
39242
39556
39716
40015
40262
40505
40683
41016
41341
41564
41779
41952
42332
42653
42825
43126
43362
43588
43806
44041
44335
44502
44839
45112
45303
45616
45862
46151
46308
46633
46904
47146
47396
47557
47865
48131
48303
48567
48846
49154
49335
49624
49846
50065
50226
50566
51055
51376
51543
51840
52132
52303
52596
52867
53109
53456
53727
53979
54252
54617
54863
55100
55282
55618
55865
56140
56353
56645
56891
57350
57609
57839
58021
58339
58570
58809
58968
59259
59492
59772
60034
60455
60689
60937
61094
61416
61721
61896
62348
62634
62802
63122
63359
63589
63838
64012
64298
64536
64766
64925
65240
65465
65718
65891
66285
66740
67041
67206
67510
67757
68034
68214
68502
68981
69312
69554
69999
70322
70557
70890
71189
71357
71694
72011
72289
72575
72758
73107
73342
73594
73760
74089
74608
74892
75061
75358
75598
75822
76045
76301
76559
76766
77115
77395
77674
77852
78105
78318
78558
78737
79054
79303
79672
79939
80117
80432
80651
80879
81194
81370
81715
82044
82206
82530
82764
82984
83240
83412
83742
83964
84263
84560
84714
85051
85296
85550
85731
86032
86277
86507
86672
86961
87218
87567
87749
88107
88335
88594
88756
89168
89331
89667
89922
90339
90587
90817
91067
91289
91500
91724
91965
92248
92510
92670
92974
93191
93413
93595
93982
94234
94478
94644
94974
95202
95454
95721
95957
96187
96367
96713
96945
97216
97503
97664
97995
98229
98443
98682
98878
99164
99368
99657
99905
100124
100305
100600
100886
101063
101418
101663
101895
102109
102297
102588
102864
103059
103350
103609
103887
104054
104366
104646
104820
105179
105505
105678
106099
106337
106545
106768
106944
107243
107487
107724
107891
108175
108482
108649
108937
109570
109803
110051
110217
110513
110724
111081
111342
111634
111811
112181
112456
112618
112871
113105
113373
113562
113849
114089
114337
114618
114982
115205
115443
115701
115925
116153
116342
116607
116830
117139
117638
117942
118120
118465
118703
118931
119234
119466
119696
119869
120220
120469
120766
121085
121242
121542
121798
122043
122288
122566
122964
123401
123631
123879
124343
124584
124899
125319
125624
125910
126083
126431
126657
126877
127116
127291
127617
128040
128320
128493
128863
129085
129310
129573
129808
130074
130306
130545
130733
131098
131366
131547
131873
132198
132414
132638
132886
133057
133361
133797
134026
134239
134403
134673
135126
135405
135681
135855
136184
136395
136623
136776
137075
137321
137569
137740
138068
138349
138513
138810
139033
139360
139583
139814
140035
140357
140592
140798
140978
141276
141617
141929
142117
142480
142707
142937
143159
143326
143617
143888
144129
144351
144528
144807
145075
145249
145563
145848
146035
146401
146628
146866
147095
147300
147580
147740
148087
148318
148549
148791
149015
149254
149427
149739
149999
150194
150523
150809
151104
151261
151596
151837
152157
152331
152692
152950
153140
153393
153647
153870
154094
154271
154589
154819
155108
155363
155580
155830
156134
156295
156667
156931
157183
157402
157592
157844
158051
158282
158616
158841
159097
159341
159585
159815
160043
160252
160472
160697
160881
161278
161538
161767
161955
162203
162420
162637
162828
163122
163358
163625
163922
164081
164426
164668
164843
165164
165446
165673
165915
166090
166443
166677
166927
167114
167443
167697
167929
168277
168514
168742
168908
169217
169436
169668
169841
170158
170424
170661
170934
171338
171673
171974
172151
172541
172791
173024
173258
173583
173883
174062
174438
174730
174905
175191
175420
175712
175964
176290
176537
176800
177032
177323
177725
178005
178208
178558
178813
179052
179356
179580
179827
179980
180298
180563
180831
181014
181352
181584
181843
182151
182315
182657
182955
183134
183495
183924
184165
184378
184637
184888
185134
185391
185562
185975
186237
186493
186671
186966
187269
187443
187825
188053
188255
188468
188646
188934
189174
189416
189590
189874
190114
190367
190526
190785
191071
191262
191617
191865
192137
192305
192594
192841
193174
193426
193696
193890
194129
194377
194681
194938
195165
195389
195573
195868
196102
196345
196526
196858
197125
197296
197570
197870
198063
198370
198606
198804
199007
199251
199442
199675
199862
200230
200480
200694
200875
201168
201443
201605
201972
202253
202500
202778
202953
203223
203438
203643
203831
204088
204426
204710
204936
205153
205328
205607
205877
206046
206355
206649
206897
207092
207364
207585
207806
207985
208375
208597
208873
209046
209338
209596
209776
210018
210272
210502
210772
211057
211366
211533
211848
212092
212336
212524
212766
212995
213251
213433
213813
214078
214248
214595
214822
215159
215405
215648
215878
216050
216315
216719
216992
217171
217527
217794
218047
218227
218493
218719
218953
219205
219423
219706
219884
220225
220581
220828
221086
221271
221625
221881
222127
222349
222527
222813
223032
223256
223436
223704
224049
224322
224561
224788
224945
225238
225536
225816
226048
226333
226566
226862
227311
227686
227953
228204
228444
228725
228928
229147
229402
229604
229906
230173
230400
230698
230923
231090
231430
231645
232116
232379
232735
232971
233210
233379
233665
233891
234131
234312
234687
234922
235182
235566
235819
236079
236252
236574
236853
237042
237338
237685
237945
238219
238380
238709
238937
239204
239376
239686
239912
240147
240372
240577
240818
241005
241343
241624
241814
242085
242306
242517
242724
242925
243221
243492
243706
243989
244231
244456
244683
244899
245169
245350
245621
245860
246100
246281
246582
246787
247046
247335
247624
247807
248115
248387
248552
248867
249144
249322
249604
249855
250191
250475
250643
250909
251148
251370
251579
251768
252126
252347
252616
252812
253011
253221
253396
253713
254003
254181
254478
254749
254919
255193
255593
255848
256112
256296
256611
256888
257073
257342
257555
257784
258008
258250
258498
258741
258933
259181
259400
259651
259878
260114
260300
260607
260830
261076
261243
261523
261774
261946
262264
262558
262740
263067
263300
263550
263730
264128
264364
264613
264802
265089
265352
265574
265803
265966
266267
266498
266754
266982
267207
267466
267710
267906
268141
268366
268705
268982
269215
269394
269688
269937
270163
270329
270612
270819
271067
271232
271591
272008
272418
272655
272891
273065
273337
273530
273798
273982
274343
274826
275187
275560
275813
276055
276303
276479
276756
276987
277227
277463
277696
277876
278167
278483
278745
278975
279212
279572
280050
280542
280811
280966
281281
281532
281767
282124
282398
282580
282797
282924
283280
283536
283759
283997
284166
284554
284795
285206
285423
285799
286042
286276
286558
286861
287037
287458
287764
287991
288232
288493
288663
289159
289410
289579
289869
290112
290515
290776
291025
291273
291442
291734
291898
292214
292619
292872
293169
293461
293635
294133
294372
294587
294826
295003
295288
295536
295764
296108
296366
296543
296869
297268
297606
297931
298392
298749
298969
299286
299505
299777
300015
300240
300414
300698
300968
301136
301524
301768
302021
302206
302480
302698
302929
303095
303246
303433
303735
304110
304463
304719
304944
305189
305498
305668
305990
306354
306592
306813
307024
307189
307474
307700
307970
308414
308709
308873
309221
309468
309688
309984
310214
310480
310892
311141
311419
311583
311844
312071
312344
312517
312854
313086
313289
313473
313737
313948
314182
314373
314663
314922
315214
315436
315762
316013
316247
316419
316716
316969
317272
317419
317767
317977
318170
318453
318690
318935
319125
319433
319672
319908
320145
320409
320661
320945
321211
321461
321629
321985
322210
322469
322710
322930
323159
323343
323696
323976
324136
324485
324738
325054
325280
325507
325796
325969
326252
326562
326714
327137
327419
327652
327874
328046
328546
329033
329371
329697
329957
330198
330425
330644
330805
331099
331367
331540
332035
332295
332525
332711
333074
333284
333554
333807
334048
334299
334474
334876
335088
335316
335576
335807
336100
336378
336615
336853
337104
337466
337756
337924
338259
338501
338747
338979
339145
339449
339662
339902
340133
340380
340650
340888
341163
341332
341680
341919
342303
342541
342798
342975
343304
343533
343826
344082
344253
344519
344740
344962
345155
345444
345689
345929
346149
346389
346609
346826
347074
347465
347666
347928
348112
348570
348866
349042
349348
349618
349787
350101
350374
350544
350860
351111
351320
351620
351863
352170
352382
352592
352792
353004
353252
353527
353808
353981
354305
354529
354755
354920
355266
355494
355755
355981
356208
356409
356660
356895
357116
357285
357616
358015
358351
358592
358805
359041
359201
359468
359749
359920
360289
360531
360774
360939
361269
361511
361908
362185
362352
362673
362993
363213
363469
363642
363930
364174
364402
364666
364837
365148
365389
365559
365877
366182
366344
366693
366929
367225
367376
367679
367915
368100
368379
368551
369007
369263
369541
369698
369996
370229
370466
370650
371008
371302
371475
371839
372060
372282
372527
372708
373041
373365
373533
373906
374162
374464
374737
374996
375178
375527
375867
376101
376409
376565
376863
377102
377336
377568
377746
378043
378428
378651
378892
379100
379362
379601
379849
380042
380321
380547
380773
380950
381301
381543
381791
381960
382232
382649
382879
383106
383338
383522
383822
384219
384486
384721
384957
385204
385371
385706
385972
386264
386438
386774
387015
387187
387511
387911
388240
388500
388728
388971
389153
389480
389703
389957
390125
390505
390761
391001
391189
391510
391744
391989
392171
392720
393196
393524
393789
394069
394242
394596
395052
395311
395472
395738
396137
396393
396637
396873
397183
397598
397863
398036
398427
398910
399160
399434
399599
399932
400174
400434
400603
400908
401144
401605
401912
402132
402358
402662
402832
403160
403417
403642
403866
404033
404338
404620
404780
405071
405315
405582
405762
406129
406367
406611
406780
407186
407478
407924
408356
408608
408773
409069
409291
409533
409719
410070
410394
410558
410897
411128
411363
411544
411922
412164
412415
412596
412916
413204
413371
413905
414151
414384
414692
414903
415186
415422
415660
415910
416082
416449
416606
416928
417185
417411
417639
417924
418195
418456
418752
419072
419305
419572
419977
420213
420465
420733
420903
421198
421416
421701
422006
422173
422524
422789
423049
423217
423531
423758
423979
424218
424383
424704
424965
425146
425484
425733
425970
426148
426501
426829
427074
427304
427558
427719
428032
428339
428590
428994
429332
429648
429896
430133
430425
430732
430899
431227
431479
431728
431917
432179
432399
432728
432961
433181
433392
433838
434275
434506
434732
435160
435403
435664
435972
436218
436506
436681
437005
437169
437452
437689
437913
438113
438407
438648
439068
439407
439714
439895
440214
440620
440840
441065
441239
441496
441759
441955
442248
442498
442776
442937
443241
443478
443799
444055
444298
444578
444741
445032
445296
445474
445771
446197
446461
446727
447141
447375
447658
447820
448380
448818
449095
449258
449571
449884
450043
450355
450686
450929
451173
451346
451637
451960
452119
452452
452705
453195
453673
453897
454262
454679
454925
455188
455363
455776
456019
456268
456432
456836
457310
457574
457862
458021
458424
458666
458891
459237
459558
459820
459989
460274
460585
460746
461062
461419
461669
461928
462102
462392
462609
462855
463029
463334
463626
463888
464063
464348
464575
464847
465002
465333
465577
465828
466136
466399
466655
466907
467237
467730
468297
468545
468716
469061
469282
469496
469967
470390
470624
470881
471045
471408
471808
472027
472262
472503
472682
472991
473222
473442
473696
473931
474156
474389
474681
474946
475279
475494
475717
476006
476264
476673
477124
477383
477566
477824
478067
478385
478635
479066
479326
479706
480137
480369
480601
480927
481189
481504
481838
481995
482463
482730
483051
483325
483866
484110
484431
484658
484900
485379
485849
486076
486377
486618
486844
487116
487366
487618
487931
488379
488635
488802
489226
489500
489749
489927
490223
490417
490782
491007
491324
491574
491847
492301
492560
492729
493026
493256
493513
493783
494050
494329
494569
494912
495236
495490
495772
496108
496375
496673
496839
497148
497398
497635
497950
498391
498704
498865
499282
499732
499995
500284
500634
500922
501351
501587
502019
502570
502816
503076
503234
503606
504008
504333
504662
504874
505244
505488
505779
506285
506553
506735
507059
507405
507647
507996
508338
508623
509046
509325
509585
509762
510103
510424
510584
510880
511136
511447
511623
511917
512174
512338
512658
512931
513234
513516
513822
514112
514346
514643
514814
515192
515672
515929
516217
516533
516793
517065
517607
517950
518209
518474
518731
518978
519216
519467
519641
519982
520242
520482
521010
521336
521606
521864
522056
522370
522594
522834
523057
523288
523684
524033
524275
524577
524838
525066
525324
525717
525980
526157
526577
527105
527425
527654
527831
528253
528532
528772
528961
529219
529442
529673
529924
530147
530376
530617
530794
531138
531396
531679
531956
532273
532586
532892
533187
533429
533659
533897
534222
534542
534712
535072
535329
535505
536026
536273
536604
536861
537302
537702
538023
538264
538536
538838
539094
539438
539708
539954
540199
540472
540711
540915
541274
541526
541788
542032
542271
542670
543005
543285
543579
543881
544143
544334
544684
545000
545243
545516
545827
546174
546431
546663
546959
547322
547568
547925
548256
548510
548782
549017
549281
549585
549835
550237
550518
550690
551205
551445
551606
551977
552263
552569
552825
553240
553501
553906
554202
554380
554704
555023
555254
555526
555760
556070
556326
556620
556942
557189
557434
557729
557960
558210
558539
558845
559107
559508
559797
559956
560312
560574
560836
561155
561445
561619
561910
562342
562590
562829
563140
563642
563889
564113
564303
564563
564853
565119
565439
565682
565999
566231
566454
566675
566842
567150
567613
568026
568401
568648
568870
569131
569422
569667
569908
570184
570508
570759
571000
571422
571785
572069
572331
572597
572822
572979
573289
573539
573796
574081
574351
574748
574990
575285
575551
575811
576135
576648
576958
577180
577420
577643
577881
578119
578457
578705
578936
579164
579412
579689
579942
580320
580783
581030
581261
581485
581789
582048
582361
582628
582868
583096
583319
583532
583692
584023
584351
584800
585051
585229
585484
585697
585909
586136
586367
586538
586923
587156
587394
587647
587970
588216
588607
588872
589042
589415
589676
589968
590219
590613
590906
591079
591470
591697
591919
592174
592435
592826
593091
593258
593590
593822
594046
594293
594524
594758
594998
595449
595744
595977
596244
596483
596796
597083
597329
597662
597980
598249
598519
598761
598979
599209
599471
599764
600023
600295
600529
600795
600934
601277
601536
601859
602101
602354
602579
602807
603038
603280
603701
603967
604228
604470
604730
604982
605218
605448
605728
605976
606302
606559
606793
607014
607269
607522
607761
608153
608395
608633
608882
609195
609474
609724
609895
610241
610531
610788
611064
611400
611801
612143
612404
612690
613007
613242
613470
613689
613937
614365
614628
614923
615188
615739
616138
616405
616767
617246
617689
617930
618166
618534
618785
618968
619325
619664
619884
620118
620342
620547
620851
621111
621346
621786
622032
622271
622702
622957
623119
623445
623761
624049
624343
624576
624822
625102
625365
625659
626137
626446
626758
626988
627408
627680
628028
628267
628527
628763
629026
629287
629553
629813
630153
630442
630684
630975
631294
631523
631772
632076
632345
632655
632895
633143
633412
633715
633953
634329
634675
634921
635085
635492
635899
636147
636416
636653
636944
637433
637700
638022
638266
638521
638786
639137
639547
639849
640069
640302
640576
640865
641162
641437
641686
641983
642264
642660
642970
643263
643566
643848
644091
644313
644547
644790
645050
645311
645601
645832
646073
646328
646634
647066
647318
647582
647964
648287
648534
648760
648979
649233
649528
649807
