77
357
641
887
1188
1477
1773
2067
2332
2641
2936
3188
3517
3827
4106
4401
4686
4970
5231
5567
5888
6190
6479
6771
7028
7326
7605
7890
8196
8475
8758
9039
9290
9600
9912
10192
10511
10777
11069
11352
11637
11904
12236
12543
12816
13120
13401
13669
13957
14247
14547
14862
15133
15419
15703
15957
16270
16568
16855
17143
17410
17716
17992
18252
18570
18858
19150
19432
19710
19997
20278
20541
20875
21167
21454
21732
22039
22302
22582
22907
23199
23472
23783
24079
24345
24629
24917
25213
25532
25801
26122
26396
26677
26982
27277
27600
27891
28186
28454
28763
29043
29339
29660
29950
30225
30540
30820
31085
31393
31688
31977
32271
32563
32822
33123
33386
33694
33989
34287
34586
34893
35187
35479
35796
36117
36431
36738
37053
37314
37629
37954
38275
38598
38910
39216
39520
39813
40134
40460
40769
41035
41358
41661
41938
42265
42572
42859
43173
43463
43739
44042
44335
44636
44955
45236
45525
45825
46088
46371
46677
46974
47261
47544
47811
48095
48373
48641
48960
49232
49519
49803
50083
50384
50653
50955
51258
51561
51837
52154
52432
52702
53032
53325
53632
53919
54231
54494
54808
55104
55395
55718
56012
56312
56599
56898
57168
57475
57786
58090
58371
58680
58948
59242
59544
59850
60126
60445
60713
61022
61292
61589
61883
62189
62478
62791
63074
63356
63665
63955
64287
64596
64904
65203
65512
65813
66130
66420
66746
67054
67323
67644
67911
68216
68539
68839
69135
69431
69689
70001
70288
70588
70914
71202
71467
71777
72052
72336
72642
72935
73226
73539
73800
74109
74389
74657
74997
75329
75629
75914
76189
76477
76772
77078
77387
77657
77981
78256
78554
78870
79170
79498
79774
80100
80385
80662
80973
81254
81594
81900
82197
82458
82774
83070
83382
83690
84001
84263
84579
84849
85148
85448
85723
86058
86348
86626
86940
87209
87496
87821
88123
88391
88712
89014
89279
89587
89891
90195
90509
90790
91058
91374
91647
91943
92244
92545
92830
93098
93407
93673
93958
94257
94543
94853
95142
95418
95699
95967
96267
96567
96840
97156
97448
97714
98026
98297
98602
98907
99205
99483
99776
100065
100324
100653
100965
101247
101539
101823
102103
102388
102685
102986
103314
103580
103900
104187
104473
104790
105094
105385
105708
106010
106276
106590
106887
107187
107519
107790
108085
108396
108662
108968
109270
109548
109871
110159
110449
110733
110989
111303
111601
111895
112192
112481
112759
113044
113332
113614
113949
114233
114528
114817
115107
115367
115709
116037
116357
116676
116990
117289
117578
117891
118173
118517
118838
119138
119430
119725
120056
120372
120679
120943
121258
121566
121828
122145
122449
122746
123062
123359
123622
123932
124199
124541
124828
125152
125426
125732
126003
126296
126601
126886
127188
127473
127739
128049
128315
128612
128906
129198
129487
129773
130036
130345
130604
130910
131210
131508
131769
132088
132364
132622
132952
133247
133521
133838
134115
134383
134695
134970
135270
135562
135855
136150
136437
136733
136992
137295
137598
137884
138181
138469
138729
139043
139316
139644
139923
140216
140504
140787
141072
141330
141663
141971
142254
142570
142864
143129
143428
143725
144043
144325
144643
144928
145213
145488
145805
146099
146399
146711
146991
147285
147586
147857
148157
148483
148784
149057
149367
149649
149910
150238
150523
150851
151129
151422
151710
151978
152308
152633
152944
153247
153556
153862
154171
154478
154785
155107
155381
155714
156037
156337
156655
156979
157301
157602
157893
158190
158453
158774
159110
159421
159723
159998
160311
160575
160888
161175
161512
161787
162101
162376
162662
162946
163227
163562
163844
164123
164439
164728
165026
165306
165613
165902
166223
166495
166822
167083
167403
167691
168048
168366
168647
168943
169207
169534
169823
170157
170449
170743
171033
171341
171607
171916
172229
172502
172826
173096
173402
173679
173953
174290
174584
174855
175151
175434
175690
176004
176292
176589
176876
177148
177441
177700
177981
178266
178564
178867
179156
179431
179740
180008
180274
180613
180899
181201
181467
181786
182049
182331
182640
182939
183211
183527
183809
184091
184374
184656
184932
185261
185537
185837
186121
186383
186669
186972
187279
187556
187870
188145
188426
188719
188992
189318
189603
189888
190184
190477
190736
191050
191379
191691
191993
192541
192783
193202
193561
193732
194132
194299
194650
194814
195185
195350
195711
195878
196082
196252
196440
196625
196820
196969
197349
197746
198151
198535
198910
199281
199633
199943
200240
200552
200817
201117
201382
201547
201978
202344
202697
203012
203326
203585
203867
204130
204623
204811
205198
205360
205697
205860
206056
206220
206523
206697
206806
206987
207175
207406
207613
207788
207970
208154
208342
208506
208706
208901
209084
209416
209610
209768
209933
210110
210452
210848
211265
211708
212161
212523
212847
213221
213526
213820
214121
214420
214699
215007
215290
215615
215897
216210
216482
216762
217070
217377
217689
217970
218281
218577
218843
219151
219465
219742
220068
220222
220611
220849
221221
221492
221835
222004
222390
222790
222953
223332
223510
223923
224110
224459
224622
225001
225170
225360
225573
225734
225902
226060
226196
226412
226612
226756
226926
227098
227301
227483
227640
227845
228032
228284
228519
228729
229031
229209
229403
229595
229881
230289
230681
231095
231509
231893
232281
232672
233040
233352
233639
233914
234181
234478
234779
235065
235348
235627
235882
236188
236465
236758
237056
237332
237619
237912
238188
238458
238756
239058
239347
239657
239944
240222
240500
240765
241076
241379
241649
241958
242237
242492
242793
242957
243349
243523
243852
244017
244385
244613
244958
245122
245484
245653
246026
246278
246653
246811
247159
247333
247726
248019
248168
248563
248869
249029
249400
249653
249816
250229
250402
250597
250837
251011
251194
251365
251525
251843
252005
252209
252387
252573
252754
252924
253080
253236
253412
253598
253987
254370
254824
255284
255720
256138
256477
256645
257057
257223
257622
257788
257963
258156
258562
258735
259173
259342
259593
259740
259936
260152
260431
260683
260910
261104
261273
261485
261717
261876
262074
262237
262403
262599
262785
262962
263158
263325
263498
263679
263829
264013
264197
264377
264683
264881
265142
265367
265562
265943
266350
266803
267250
267426
267828
268241
268626
269011
269183
269562
269926
270280
270435
270754
270954
271098
271457
271628
271770
271906
272033
272217
272415
272535
272681
272841
273001
273178
273373
273541
274004
274341
274730
275145
275582
276013
276203
276495
276653
277027
277402
277580
277989
278168
278311
278460
278586
278727
278851
278996
279142
279511
279904
280285
280653
280981
281272
281550
281831
282130
282429
282720
283016
283291
283572
283856
284150
284462
284769
285037
285355
285511
285915
286082
286371
286836
287028
287510
287757
288054
288510
288944
289101
289311
289543
289761
289936
290107
290320
290510
290691
291077
291452
291810
292159
292492
292842
293195
293491
293780
294063
294358
294627
294924
295251
295543
295836
296129
296421
296703
297026
297342
297633
297963
298124
298371
298519
298688
298870
299029
299197
299358
299559
299999
300363
300750
301118
301508
301897
302061
302406
302596
302848
303191
303543
303899
304099
304232
304439
304605
304780
305138
305492
305831
306144
306448
306722
307005
307279
307546
307825
308134
308433
308693
309006
309284
309544
309867
310033
310451
310629
310781
311109
311268
311490
311695
312009
312172
312408
312588
312748
312921
313079
313249
313630
313956
314378
314838
315007
315463
315671
315868
316284
316464
316717
316877
317104
317260
317427
317572
317715
317858
318126
318266
318488
318700
318945
319390
319798
320169
320522
320693
321066
321425
321756
322090
322411
322685
322993
323277
323566
323853
324140
324410
324685
324959
325237
325552
325715
326112
326286
326524
326842
326992
327234
327396
327540
327679
327942
328300
328664
328970
329287
329610
329954
330260
330574
330879
331173
331472
331751
331920
332331
332706
332864
333112
333276
333409
333601
333746
333962
334137
334312
334479
334706
334842
335116
335309
335516
335793
335973
336146
336456
336670
336886
337088
337452
337814
338196
338643
339046
339428
339801
340164
340462
340766
341048
341376
341654
341937
342217
342511
342799
343237
343673
344045
344200
344608
344787
344918
345141
345308
345490
345653
345809
345974
346128
346290
346470
346711
346891
347384
347788
348197
348636
348803
349052
349263
349447
349625
349886
350223
350423
350610
350818
350972
351202
351402
351617
351838
352004
352226
352401
352608
352827
353051
353288
353441
353628
353864
354053
354270
354532
354702
354908
355064
355311
355746
356000
356209
356393
356681
356970
357165
357416
357619
357920
358182
358419
358691
358891
359120
359353
359610
359812
360026
360333
360555
360740
360889
361036
361167
361378
361555
361822
362030
362199
362365
362513
362674
362853
363074
363329
363557
363824
364088
364306
364466
364621
364755
364979
365297
365455
365677
365905
366092
366347
366538
366786
366997
367254
367541
367791
367961
368187
368385
368582
368810
369018
369316
369492
369631
369929
370085
370218
370517
370776
370932
371084
371254
371419
371563
371789
371968
372153
372368
372531
372677
372935
373089
373352
373558
373750
373895
374047
374310
374538
374780
375089
375391
375579
375873
376094
376272
376488
376666
376806
376954
377297
377549
377712
377987
378246
378483
378623
378770
379042
379221
379392
379622
379980
380215
380453
380606
380820
380955
381244
381536
381711
381860
382049
382258
382419
382651
382862
383130
383391
383621
383774
383907
384108
384250
384399
384657
384919
385125
385276
385500
385668
385815
385970
386232
386406
386637
386900
387102
387553
388012
388205
388535
388934
389110
389522
389686
390137
390313
390748
391162
391539
391900
392057
392426
392790
393061
393360
393627
393899
394185
394473
394780
395083
395364
395642
395947
396221
396519
396827
397115
397409
397703
397955
398256
398533
398835
399131
399437
399716
400000
400262
400569
400857
401149
401449
401744
402015
402322
402591
402894
403167
403321
403763
403937
404319
404550
404889
405154
405307
405714
405968
406282
406576
406874
407021
407412
407582
407941
408259
408557
408853
409138
409454
409769
410081
410359
410664
410922
411229
411495
411980
412370
412532
412896
413213
413503
413663
414052
414302
414700
415049
415200
415572
415743
416114
416292
416657
416822
417204
417429
417835
418109
418557
418733
419090
419257
419633
419794
420148
420320
420717
420882
421266
421433
421784
421934
422326
422502
422871
423042
423295
423710
424100
424313
424474
424826
425003
425345
425517
425882
426053
426395
426568
426929
427152
427509
427738
428078
428250
428570
428765
429115
429341
429483
429794
429999
430309
430522
430843
431046
431391
431601
431940
432143
432474
432660
432986
433186
433325
433669
433879
434221
434388
434721
434906
435276
435454
435847
436010
436377
436548
436894
437048
437420
437591
437970
438136
438508
438670
439035
439303
439559
439727
439940
440123
440428
440597
440728
441001
441199
441355
441518
441696
442078
442410
442796
443198
443600
444006
444231
444650
444819
445007
445414
445571
445765
446171
446336
446599
446759
446933
447079
447232
447395
447551
447703
447886
448376
448737
449215
449688
449850
450042
450501
450679
450944
451352
451521
451770
452149
452304
452576
452771
452993
453147
453298
453446
453689
453871
454015
454216
454366
454523
454691
455152
455556
455980
456187
456371
456750
457134
457512
457711
458053
458260
458387
458594
458916
459258
459477
459624
459764
459947
460127
460304
460492
460650
460828
460944
461101
461325
461607
461911
462237
462565
462852
462997
463145
463379
463622
463769
464026
464355
464674
464980
465251
465542
465829
466120
466271
466399
466553
466728
467036
467365
467700
468034
468338
468478
468608
468958
469269
469424
469529
469697
469980
470268
470583
470855
471131
471406
471660
471951
472113
472529
472700
472956
473113
473250
473623
473776
473963
474339
474505
474707
475087
475287
475661
475904
476038
476414
476601
476733
476919
477100
477406
477713
477991
478313
478473
478621
478767
478955
479179
479303
479474
479731
479881
480036
480346
480687
481062
481405
481737
482093
482395
482541
482687
482825
483012
483222
483466
483645
483830
484007
484156
484317
484470
484828
485182
485590
485939
486380
486814
486973
487400
487585
487899
488056
488280
488448
488614
488777
488901
489197
489468
489661
489813
489986
490411
490734
491108
491566
492020
492432
492598
492974
493142
493415
493576
493844
494041
494226
494370
494601
494815
494983
495175
495337
495538
495677
496057
496423
496778
497215
497665
498046
498211
498439
498599
498754
498916
499083
499238
499468
499676
499844
500245
500627
501097
501546
501908
502239
502615
502778
503193
503555
503712
503954
504089
504295
504444
504870
505200
505522
505824
506116
506415
506721
507022
507297
507610
507760
508150
508536
508706
508959
509114
509314
509495
509678
509890
510242
510599
510983
511281
511575
511877
512162
512435
512703
513014
513318
513599
513919
514074
514332
514824
515086
515529
515704
515956
516382
516740
516892
517109
517262
517470
517698
518011
518430
518843
519017
519274
519716
520143
520349
520500
520658
521021
521420
521607
521811
522218
522388
522572
522795
522960
523105
523250
523391
523626
524117
524583
525016
525410
525617
525766
526143
526319
526713
526946
527095
527297
527463
527674
527801
527962
528097
528364
528779
529171
529332
529590
529734
529914
530368
530789
531211
531597
531971
532330
532676
532841
532972
533164
533362
533526
533725
533896
534055
534234
534429
534608
534926
535279
535652
535985
536313
536613
536907
537225
537519
537859
538133
538417
538692
538987
539150
539276
539455
539590
539732
539923
540156
540341
540508
540736
540905
541041
541239
541380
541605
541814
541972
542276
542447
542647
542855
542972
543337
543709
544059
544404
544738
545009
545282
545567
545846
546122
546393
546659
546914
547178
547435
547717
547994
548278
548552
548825
549090
549352
549633
549925
550209
550494
550774
551028
551336
551606
551880
552180
552471
552622
552871
553025
553164
553320
553484
553676
553826
553983
554173
554372
554538
554721
554852
555008
555163
555321
555483
555647
555854
556099
556281
556758
557090
557501
557958
558409
558808
559146
559493
559774
560045
560310
560600
560888
561204
561502
561765
562050
562336
562621
562925
563231
563518
563790
564106
564387
564668
564976
565131
565352
565521
565675
565849
565995
566142
566283
566447
566591
566751
566911
567073
567240
567409
567588
567747
567937
568251
568659
569106
569588
570041
570425
570745
570896
571099
571271
571411
571625
572050
572450
572830
573196
573570
573943
574251
574400
574541
574889
575189
575336
575466
575605
575773
575981
576175
576405
576548
576759
577021
577222
577401
577526
577684
577945
578163
578479
578624
578750
578893
579035
579180
579345
579582
579761
579929
580127
580377
580577
580732
580879
581028
581228
581462
581668
581849
582062
582297
582596
582844
582978
583215
583418
583652
583914
584110
584293
584577
584781
584997
585209
585428
585688
585859
586117
586307
586558
586928
587115
587251
587383
587605
587817
588068
588356
588591
588842
589004
589235
589454
589705
589940
590100
590280
590452
590700
590960
591181
591369
591625
591886
592221
592458
592615
592774
593079
593300
593438
593570
593695
593949
594204
594342
594547
594763
594936
595091
595247
595413
595647
595824
596047
596260
596486
596734
596911
597073
597268
597426
597709
597902
598037
598205
598500
598784
599019
599192
599467
599624
599879
600086
600264
600565
600858
601061
601187
601475
601726
601942
602239
602415
602690
602919
603083
603314
603459
603725
603904
604100
604395
604698
604894
605067
605370
605530
605743
605953
606152
606309
606592
606767
607028
607224
607427
607641
607886
608085
608253
608535
608719
608878
609031
609268
609516
609798
609983
610145
610342
610599
610809
611052
611339
611497
611701
611927
612078
612228
612516
612762
612917
613216
613435
613569
613795
613960
614177
614402
614611
614869
615037
615297
615449
615650
615787
615912
616114
616415
616698
616985
617302
617512
617770
617944
618093
618349
618520
618668
618808
619039
619338
619506
619743
619934
620074
620285
620509
620662
620946
621107
621398
621579
621755
621891
622092
622261
622520
622765
623031
623261
623494
623811
623980
624213
624441
624582
624836
625126
625348
625487
625748
625916
626205
626350
626488
626714
626954
627286
627520
627747
627947
628151
628422
628679
628869
629103
629408
629602
629755
629884
630169
630406
630620
630879
631184
631403
631643
631821
631967
632222
632450
632635
632905
633132
633357
633530
633794
634086
634334
634507
634739
634891
635206
635382
635620
635833
636031
636301
636612
636848
637053
637241
637421
637612
637812
638042
638364
638520
638708
638986
639127
639399
639655
639865
640029
640261
640507
640709
640939
641228
641409
641565
641686
641895
642107
642320
642655
642932
643148
643364
643556
643870
644038
644246
644381
644630
644814
644976
645240
645435
645562
645824
645977
646297
646455
646677
646972
647129
647383
647549
647716
648050
648235
648491
648715
648982
649153
649312
649597
649856
