209
485
764
1039
1311
1579
1860
2131
2390
2652
2913
3180
3449
3716
3973
4242
4519
4784
5042
5306
5574
5847
6114
6377
6650
6925
7190
7448
7712
7982
8254
8492
8783
9051
9327
9592
9856
10124
10394
10673
10947
11215
11482
11767
12041
12313
12588
12857
13134
13407
13673
13938
14218
14485
14747
15014
15281
15552
15827
16102
16376
16668
16946
17215
17493
17769
18048
18322
18588
18853
19128
19392
19645
19910
20173
20441
20711
20975
21236
21511
21780
22039
22262
22574
22851
23051
23345
23633
23926
24209
24483
24760
25036
25317
25586
25851
26125
26320
26673
26938
27207
27464
27736
28005
28273
28544
28828
29099
29364
29638
29907
30184
30461
30732
30999
31273
31537
31787
32051
32315
32582
32852
33117
33376
33648
33914
34174
34435
34703
34975
35241
35503
35760
36023
36296
36563
36825
37095
37360
37632
37897
38156
38417
38686
38949
39209
39467
39731
39996
40265
40523
40783
41061
41336
41606
41871
42143
42414
42689
42996
43419
43619
44049
44330
44586
44884
45167
45420
45697
45971
46215
46503
46767
46994
47298
47574
47760
48096
48367
48561
48906
49170
49365
49699
49938
50166
50493
50757
51036
51289
51550
51810
52070
52333
52602
52855
53108
53374
53644
53897
54151
54394
54680
54952
55215
55455
55757
56034
56300
56548
56825
57093
57360
57606
57861
58125
58389
58645
58896
59059
59401
59664
59918
60173
60435
60708
60967
61220
61481
61737
61999
62191
62474
62750
62988
63295
63559
63819
64093
64367
64644
64909
65168
65437
65706
65964
66215
66480
66744
66965
67247
67523
67760
68068
68336
68601
68874
69139
69412
69681
69948
70210
70482
70751
71017
71286
71547
71817
72083
72345
72606
72882
73151
73419
73679
73943
74214
74486
74744
75003
75281
75557
75825
76089
76357
76624
76894
77161
77423
77692
77969
78228
78481
78741
78993
79255
79518
79782
80043
80320
80592
80854
81121
81340
81642
81935
82207
82473
82748
83015
83268
83521
83781
84037
84306
84563
84820
85085
85354
85618
85874
86140
86408
86685
86945
87209
87477
87745
88009
88264
88529
88790
89060
89317
89572
89832
90107
90365
90616
90871
91130
91397
91663
91922
92175
92452
92716
92969
93236
93501
93771
94039
94306
94566
94836
95094
95350
95604
95866
96124
96387
96640
96894
97154
97421
97683
97940
98202
98464
98733
98991
99250
99509
99779
100041
100298
100505
100804
101047
101331
101591
101843
102110
102370
102628
102892
103154
103416
103684
103941
104195
104460
104734
104996
105253
105515
105773
106040
106244
106527
106798
107080
107355
107615
107875
108135
108399
108660
108915
109166
109428
109695
109957
110210
110470
110731
110990
111253
111432
111778
112058
112324
112581
112843
113103
113367
113633
113893
114149
114414
114675
114934
115190
115445
115709
115980
116242
116501
116769
117041
117303
117558
117818
118070
118337
118595
118854
119115
119387
119647
119903
120171
120433
120703
120975
121239
121501
121778
122038
122293
122555
122816
123087
123351
123611
123863
124129
124389
124643
124896
125157
125422
125689
125949
126139
126433
126717
126989
127257
127529
127804
128080
128344
128606
128882
129149
129415
129679
129940
130205
130473
130727
130981
131245
131517
131784
132042
132311
132567
132833
133028
133310
133615
133900
134172
134431
134681
134963
135235
135500
135768
136033
136314
136586
136848
137122
137395
137681
137961
138234
138497
138770
139031
139286
139542
139801
140065
140330
140584
140833
141088
141352
141608
141857
142114
142364
142623
142876
143127
143373
143632
143884
144136
144382
144634
144887
145140
145392
145639
145890
146157
146410
146664
146915
147166
147419
147680
147923
148164
148418
148680
148933
149180
149432
149685
149940
150202
150455
150707
150969
151228
151485
151732
151988
152243
152498
152745
152993
153246
153514
153769
154018
154270
154537
154787
155050
155277
155554
155814
156066
156320
156563
156815
157060
157299
157555
157801
158047
158309
158558
158807
159052
159300
160287
160546
160803
161047
161294
161782
162033
162283
162531
162769
162964
163262
163511
163727
164005
164248
164497
164742
164986
165226
165473
165714
165956
166196
166444
166687
166938
167136
167426
167675
167930
168175
168420
168659
168869
169146
169394
169592
169871
170118
170373
170613
170859
171101
171315
171583
171837
172079
172324
172552
172821
173076
173326
173574
173822
174066
174318
174564
174778
175016
175301
175554
175798
176040
176297
176545
176799
177048
177292
177541
177795
178042
178285
178528
178780
179028
179280
179531
179782
180032
180295
180547
180792
181046
181298
181558
181821
182076
182327
182587
182847
183105
183349
183600
183848
184104
184355
184572
184816
185117
185379
185633
185886
186138
186396
186652
186896
187143
187393
187650
187902
188144
188394
188638
188894
189150
189397
189640
189896
190148
190395
190643
190843
191097
191381
191636
191886
192130
192393
192643
192886
193136
193390
193647
193904
194158
194399
194656
194911
195157
195396
195635
195874
196073
196364
196610
196844
197108
197354
197603
197846
198095
198336
198584
198827
199070
199306
199559
199803
200046
200286
200505
200774
201033
201279
201526
201771
202030
202275
202519
202764
202913
203257
203509
203754
203992
204229
204483
204722
204931
205192
205439
205659
205916
206159
206401
206611
206880
207126
207351
207594
207795
208015
208257
208433
208707
208868
209141
209319
209592
209760
210021
210190
210439
210612
210874
211045
211290
211453
211714
211887
212138
212310
212543
212703
212941
213111
213354
213522
213750
213918
214151
214326
214553
214725
214945
215111
215322
215490
215716
215888
216122
216290
216500
216673
216912
217077
217286
217456
217681
217845
218067
218246
218457
218631
218851
219019
219268
219435
219653
219827
220041
220216
220444
220616
220839
221006
221208
221377
223197
223364
223592
223760
223994
224400
224776
225188
225345
225603
225776
226002
226167
226410
226587
226834
227000
227231
227398
227753
228104
228296
228507
228810
229072
229310
230057
230322
230539
230776
231008
231263
231494
231724
232200
232435
232678
232916
233154
233387
233630
233874
234110
234343
234578
234813
235061
235304
235548
235785
236034
236279
236524
236764
237009
237257
237503
237749
238000
238245
238508
238756
239002
239251
239500
239753
239979
240248
240498
240746
241009
241259
241507
241754
242001
242251
242501
242745
242983
243226
243482
243728
243975
244221
244470
244721
244977
245222
245465
245716
245973
246219
246453
246699
246944
247188
247432
247671
247906
248146
248396
248636
248875
249114
249359
249604
249850
250098
250344
250590
250844
251092
251334
251572
251819
252066
252314
252487
252671
252959
253243
253497
253748
253992
254246
254493
254745
254986
255228
255476
255730
255976
256220
256466
256711
256965
257221
257466
257706
257960
258218
258464
258712
258961
259205
259456
259703
259947
260181
260428
260678
260918
261152
261400
261643
261894
262085
262358
262523
262795
263131
263373
263616
263799
264113
264284
264606
264765
265097
265263
265587
265749
266058
266227
266537
266703
266972
267143
267499
267664
268000
268170
268478
268647
268963
269130
269343
269507
269824
269995
270376
270535
270866
271032
271362
271528
271846
272022
272327
272505
272668
272803
273038
273291
273536
273769
274012
274248
274475
274709
274955
275193
275434
275658
275901
276142
276383
276628
276867
277102
277340
277592
277832
278059
278293
278537
278783
279025
279262
279498
279745
279992
280238
280474
280710
280958
281205
281456
281701
281943
282194
282449
282697
282939
283188
283433
283683
283942
284192
284441
284644
284945
285113
285357
285686
285931
286178
286433
286674
286910
287162
287418
287663
287902
288147
288391
288642
288893
289139
289385
289641
289829
290013
290296
290586
290847
291103
291353
291602
291851
292113
292363
292604
292849
293097
293349
293600
293837
294080
294326
294584
294833
295073
295319
295564
295818
296060
296315
296561
296746
296944
297240
297526
297798
298057
298319
298537
298828
299062
299344
299585
299846
300085
300348
300592
300856
301093
301345
301582
301849
302078
302344
302586
302835
303058
303336
303581
303823
304023
304314
304564
304809
305060
305310
305567
305813
306069
306315
306576
306826
307072
307322
307573
307825
308031
308308
308537
308798
309050
309295
309536
309783
309961
310178
310487
310747
310994
311236
311497
311741
311984
312223
312470
312715
312961
313205
313447
313684
313940
314179
314424
314662
314915
315161
315406
315652
315855
316125
316389
316642
316889
317133
317382
317638
317884
318133
318380
318560
318840
319013
319272
319592
319843
320091
320351
320599
320846
321097
321352
321603
321846
322096
322346
322604
322796
323077
323246
323505
323873
324123
324339
324588
324872
325125
325374
325614
325860
326116
326361
326597
326847
327088
327344
327600
327850
328024
328231
328552
328817
329066
329317
329568
329824
330082
330331
330582
330841
331096
331342
331583
331835
332083
332333
332576
332815
333066
333319
333566
333805
334050
334289
334494
334776
334939
335299
335462
335816
335979
336317
336479
336817
336986
337333
337498
337829
337997
338342
338508
338835
339006
339341
339502
339769
340051
340308
340565
340815
341054
341295
341544
341788
342033
342278
342527
342769
343019
343268
343514
343760
344009
344256
344510
344759
345012
345262
345523
345747
346020
346269
346520
346771
347023
347268
347512
347764
348021
348265
348507
348751
348993
349246
349497
349742
349987
350237
350494
350743
350986
351230
351471
351719
351974
352180
352456
352667
352959
353208
353445
353690
353932
354178
354425
354664
354900
355146
355398
355640
355868
356112
356350
356601
356844
357091
357331
357589
357848
358097
358341
358594
358849
359100
359348
359595
359841
360103
360354
360605
360857
361104
361361
361622
361872
362122
362384
362649
362907
363155
363416
363673
363935
364116
364286
364661
364840
365103
365337
365712
365880
366222
366395
366681
366840
367205
367502
367752
368001
368249
368470
368744
368988
369235
369478
369733
369977
370203
370464
370685
370952
371212
371435
371703
371958
372213
372468
372709
372957
373199
373397
373706
373949
374155
374449
374704
374923
375197
375407
375670
375851
376089
376251
376476
376630
376862
377034
377263
377429
377661
377819
378048
378217
378455
378625
378855
379008
379255
379420
379661
379824
380047
380213
380461
380612
380864
381034
381270
381429
381678
381843
382090
382248
382475
382639
382885
383036
383290
383455
383698
383861
384114
384273
384540
384703
384952
385113
385378
385539
385818
385981
386249
386410
386677
386848
387099
387266
387518
387678
387953
388122
388405
388568
388861
389025
389405
389761
390019
390269
390524
390781
391031
391270
391525
391778
392024
392266
392517
392759
393011
393258
393507
393753
394013
394197
394475
394729
394991
395247
395505
395756
396006
396256
396516
396771
397011
397254
397499
397718
398004
398249
398498
398753
399008
399258
399499
399752
400000
400254
400500
400747
401004
401268
401521
401767
402019
402271
402527
402787
403036
403282
403541
403800
404054
404302
404553
404798
404969
405299
405469
405736
406061
406312
406564
406807
407061
407312
407560
407807
408051
408302
408561
408812
409054
409304
409557
409810
410069
410314
410559
410814
411069
411323
411566
411820
412060
412315
412564
412810
413047
413298
413552
413800
414043
414223
414496
414674
414939
415212
415520
415723
415996
416257
416513
416766
417019
417275
417532
417781
418030
418290
418542
418790
419034
419288
419538
419786
420039
420282
420526
420783
421030
421267
421513
421758
422016
422268
422522
422770
423027
423283
423534
423776
424025
424273
424461
424736
424896
425151
425516
425773
426020
426266
426513
426761
427012
427257
427503
427750
428009
428250
428494
428744
428986
429235
429489
429727
429969
430224
430484
430737
430977
431234
431482
431739
431992
432240
432487
432744
433000
433247
433496
433744
433999
434246
434492
434735
434982
435238
435487
435729
435976
436227
436479
436730
436974
437225
437471
437722
437968
438212
438462
438712
438970
439224
439470
439725
439981
440232
440480
440726
440978
441233
441490
441734
441980
442225
442484
442728
442966
443213
443463
443716
443973
444224
444471
444722
444986
445233
445476
445727
445975
446233
446492
446738
446987
447243
447504
447756
448000
448255
448503
448758
449012
449266
449511
449772
450027
450274
450514
450765
451007
451258
451503
451751
451998
452259
452506
452757
453003
453254
453509
453762
454008
454261
454518
454776
454990
455248
455525
455771
456035
456291
456542
456787
457050
457303
457550
457798
458043
458291
458539
458785
459031
459273
459534
459782
460022
460275
460524
460780
461034
461280
461525
461781
462040
462296
462542
462800
463052
463307
463551
463797
464040
464295
464541
464785
464973
465251
465422
465735
465903
466274
466442
466791
466960
467299
467462
467805
467971
468312
468476
468807
468981
469320
469488
469822
469996
470333
470500
470841
471001
471332
471508
471833
471992
472318
472489
472816
472986
473316
473475
473809
473982
474277
474433
474801
474973
475316
475492
475824
475989
476329
476496
476821
476978
477316
477482
477814
477983
478304
478475
478806
478977
479301
479470
479800
479969
480305
480469
480799
480967
481305
481472
481789
481954
482287
482461
482799
482965
483283
483460
483804
483972
484288
484452
484725
484917
485222
485395
485732
485902
486252
486423
486745
486913
487243
487425
487758
487926
488261
488431
488777
488946
489275
489438
489775
489940
490277
490448
490776
490950
491288
491462
491782
491960
492289
492472
492799
492964
493312
493491
493817
493988
494315
494474
494821
494990
495322
495485
495829
496002
496319
496490
496810
496985
497300
497472
497785
497957
498285
498453
498768
498927
499253
499427
499730
499895
500238
500407
500756
500929
501249
501414
501747
501921
502239
502402
502728
502899
503218
503388
503699
503881
504188
504352
504675
504846
505156
505331
505647
505820
506129
506315
506624
506790
507122
507288
507605
507784
508108
508263
508592
508765
509101
509267
509595
509773
510080
510268
510581
510743
511068
511237
511569
511744
512063
512238
512558
512745
513061
513226
513564
513730
514075
514253
514581
514755
515087
515270
515592
515758
516093
516258
516597
516775
517090
517261
517596
517772
518089
518256
518598
518765
519108
519272
519587
519764
520113
520283
520603
520774
521104
521275
521615
521863
522061
522356
522604
522848
523085
523330
523570
523816
524063
524307
524544
524789
525036
525281
525515
525755
525997
526243
526487
526741
526980
527236
527483
527729
527978
528222
528470
528722
528963
529204
529456
529711
529958
530200
530447
530694
530945
531201
531446
531687
531943
532199
532452
532692
532949
533194
533452
533703
533949
534203
534469
534727
534973
535236
535493
535691
535978
536151
536397
536781
536957
537241
537538
537790
538041
538296
538468
538744
538908
539191
539525
539773
540022
540270
540517
540772
541013
541243
541489
541737
541976
542205
542452
542680
542939
543191
543419
543675
543926
544178
544421
544646
544906
545100
545376
545549
545789
546141
546396
546601
546894
547135
547361
547623
547879
548128
548382
548620
548868
549129
549346
549617
549867
550066
550364
550611
550798
551094
551272
551517
551905
552082
552372
552718
552993
553245
553500
553757
554017
554265
554510
554762
555010
555201
555522
555777
555956
556287
556542
556704
557051
557225
557498
557842
558080
558274
558531
558714
558953
559121
559345
559746
560079
560278
560640
560909
561102
561449
561700
561886
562215
562474
562669
562973
563218
563414
563717
563965
564154
564453
564706
564892
565128
565412
565677
565939
566189
566429
566673
566912
567156
567408
567639
567873
568119
568371
568608
568843
569080
569321
569562
569815
570053
570293
570541
570795
571048
571287
571535
571784
572035
572283
572535
572778
573030
573281
573529
573776
574029
574282
574543
574798
575054
575316
575590
575807
576033
576363
576585
576909
577091
577334
577702
577974
578229
578484
578737
578991
579243
579506
579752
580000
580262
580515
580746
581006
581264
581511
581766
582017
582271
582515
582781
583036
583281
583529
583780
584030
584281
584522
584766
585008
585263
585513
585753
586001
586254
586505
586759
586940
587218
587386
587644
587997
588245
588495
588740
588997
589248
589492
589733
589985
590231
590477
590651
590921
591085
591346
591684
591934
592173
592395
592663
592919
593161
593404
593642
593890
594143
594389
594572
594861
595039
595271
595636
595824
596117
596301
596660
596821
597165
597337
597673
597830
598157
598317
598653
598829
599151
599308
599652
599818
600161
600327
600654
600817
601160
601327
601646
601813
602158
602324
602652
602821
603144
603312
603647
603818
604126
604301
604627
604802
605117
605283
605603
605770
606098
606270
606579
606744
607072
607251
607565
607736
608060
608225
608562
608736
609050
609229
609551
609725
610037
610217
610539
610712
611033
611207
611530
611711
612018
612193
612508
612687
613016
613193
613507
613679
613998
614180
614492
614663
614971
615148
615460
615635
615956
616118
616448
616627
616921
617185
617437
617681
617929
618191
618434
618632
618915
619191
619445
619693
619943
620124
620337
620680
620938
621186
621447
621705
621957
622202
622453
622703
622949
623203
623452
623698
623956
624210
624457
624706
624958
625210
625469
625718
625965
626226
626483
626738
626921
627203
627373
627606
627983
628151
628428
628745
628996
629238
629486
629731
629982
630236
630478
630720
630972
631225
631475
631719
631973
632218
632468
632720
632913
633189
633367
633610
633967
634214
634419
634718
634901
635147
635478
635738
635994
636249
636494
636741
636985
637238
637483
637727
637974
638223
638472
638723
638971
639227
639478
639736
639987
640233
640491
640748
640998
641243
641500
641752
642010
642269
642523
642769
643027
643284
643530
643778
644032
644287
644537
644787
645034
645282
645538
645754
646033
646203
646437
646798
646979
647261
647566
647824
648081
648338
648590
648844
649096
649355
649604
649854
