202
479
758
1033
1304
1573
1854
2123
2382
2645
2906
3173
3442
3709
3966
4235
4512
4776
5034
5299
5567
5840
6106
6369
6643
6917
7183
7442
7706
7975
8248
8493
8775
9045
9320
9584
9850
10117
10386
10666
10939
11207
11474
11759
12034
12306
12581
12850
13128
13400
13666
13932
14212
14478
14740
15008
15274
15546
15821
16094
16369
16662
16940
17209
17487
17763
18044
18315
18580
18848
19122
19386
19640
19904
20168
20437
20704
20970
21231
21506
21775
22034
22273
22570
22846
23044
23338
23627
23920
24203
24478
24756
25029
25311
25581
25845
26119
26310
26667
26932
27201
27459
27730
28000
28267
28538
28823
29094
29359
29633
29902
30179
30455
30726
30993
31267
31532
31782
32046
32310
32576
32846
33110
33369
33643
33908
34167
34429
34697
34969
35236
35497
35755
36018
36290
36556
36818
37090
37355
37625
37891
38149
38411
38681
38942
39203
39460
39724
39990
40259
40518
40777
41054
41330
41601
41865
42137
42409
42684
42837
42991
43414
43624
44043
44324
44584
44878
45161
45422
45691
45964
46213
46497
46762
46993
47293
47569
47757
48089
48363
48559
48900
49166
49360
49693
49946
50162
50487
50752
51030
51291
51545
51803
52065
52329
52596
52849
53103
53372
53638
53890
54144
54395
54676
54946
55209
55455
55751
56027
56293
56549
56819
57085
57355
57603
57856
58120
58385
58639
58891
59059
59396
59660
59915
60168
60432
60703
60963
61217
61476
61733
61994
62186
62470
62746
62985
63291
63555
63814
64090
64362
64639
64905
65163
65431
65701
65958
66211
66474
66738
66959
67242
67518
67761
68061
68330
68596
68867
69135
69408
69675
69942
70204
70477
70747
71012
71280
71542
71811
72078
72340
72599
72876
73145
73412
73674
73937
74209
74480
74738
74998
75276
75553
75819
76083
76351
76618
76889
77155
77417
77687
77962
78222
78476
78735
78987
79249
79511
79775
80037
80315
80586
80848
81116
81334
81636
81930
82201
82467
82742
83008
83263
83515
83775
84031
84301
84558
84814
85080
85347
85612
85868
86135
86403
86679
86940
87203
87471
87741
88003
88259
88524
88783
89056
89312
89567
89827
90100
90360
90610
90866
91123
91393
91657
91915
92170
92446
92710
92962
93230
93495
93763
94034
94300
94559
94830
95088
95344
95598
95860
96117
96381
96634
96887
97149
97414
97676
97932
98196
98459
98728
98985
99243
99504
99773
100036
100293
100500
100799
101047
101326
101586
101839
102106
102366
102623
102888
103149
103412
103680
103936
104191
104456
104729
104991
105247
105512
105767
106035
106239
106523
106793
107075
107350
107608
107870
108130
108393
108656
108909
109162
109424
109691
109952
110206
110465
110727
110986
111247
111431
111772
112052
112319
112576
112838
113097
113362
113628
113886
114145
114409
114670
114927
115184
115440
115704
115976
116236
116496
116764
117035
117298
117552
117813
118065
118333
118590
118849
119110
119381
119643
119898
120164
120428
120699
120970
121233
121495
121774
122034
122288
122550
122811
123082
123347
123607
123860
124125
124385
124638
124891
125151
125419
125683
125944
126134
126429
126711
126982
127251
127523
127798
128074
128338
128601
128878
129143
129408
129672
129934
130198
130468
130720
130976
131238
131510
131777
132035
132305
132561
132827
133021
133305
133609
133894
134165
134426
134675
134956
135230
135493
135761
136028
136309
136580
136842
137116
137390
137676
137955
138229
138492
138765
139025
139279
139537
139794
140060
140322
140578
140826
141083
141345
141602
141853
142110
142359
142618
142870
143122
143369
143628
143880
144131
144379
144630
144883
145136
145388
145634
145887
146154
146407
146661
146912
147164
147416
147677
147918
148161
148415
148677
148930
149177
149430
149681
149938
150200
150452
150700
150965
151224
151481
151727
151986
152237
152491
152740
152989
153241
153509
153766
154013
154267
154511
154785
155045
155278
155549
155811
156062
156317
156559
156810
157057
157298
157554
157798
158046
158308
158557
158804
159050
159299
159550
159806
160048
160285
160544
160799
161048
161291
161539
161781
162031
162281
162527
162765
162963
163257
163507
163725
164002
164246
164496
164740
164983
165224
165473
165712
165955
166195
166442
166686
166938
167136
167424
167675
167929
168174
168417
168657
168868
169144
169393
169589
169869
170117
170372
170609
170856
171098
171314
171580
171835
172077
172321
172552
172819
173074
173322
173571
173820
174064
174317
174563
174777
175015
175300
175553
175796
176037
176296
176542
176796
177045
177289
177539
177793
178040
178283
178526
178778
179025
179278
179529
179779
180031
180294
180546
180789
181045
181296
181557
181820
182076
182326
182587
182846
183105
183348
183599
183848
184105
184354
184573
184817
185117
185380
185633
185886
186137
186396
186652
186896
187141
187393
187650
187901
188146
188393
188638
188893
189148
189397
189637
189896
190147
190393
190643
190844
191096
191381
191635
191885
192128
192392
192642
192885
193134
193388
193646
193903
194157
194398
194655
194911
195156
195396
195634
195871
196072
196362
196610
196843
197104
197350
197600
197842
198090
198332
198583
198825
199067
199304
199559
199802
200042
200283
200504
200771
201032
201275
201523
201769
202028
202272
202515
202763
202910
203254
203506
203750
203988
204226
204481
204717
204928
205187
205436
205656
205913
206157
206398
206609
206876
207124
207349
207590
207789
208012
208251
208435
208698
208873
209132
209322
209585
209764
210013
210191
210431
210617
210866
211048
211283
211457
211706
211890
212129
212312
212537
212707
212933
213114
213346
213526
213743
213922
214143
214330
214545
214730
214939
215114
215316
215495
215710
215894
216115
216293
216493
216680
216906
217080
217280
217458
217673
217845
218061
218252
218450
218633
218846
219026
219260
219437
219651
219830
220033
220216
220436
220616
220830
221016
221201
221380
221629
221805
222018
222199
222400
222579
222802
222981
223197
223369
223587
223767
223986
224167
224386
224556
224767
224950
225179
225354
225598
225781
225996
226173
226406
226589
226828
227002
227228
227401
227759
228104
228295
228508
228812
229071
229301
229565
229810
230053
230300
230536
230772
231006
231257
231490
231717
231947
232192
232430
232671
232909
233146
233383
233623
233870
234103
234336
234571
234807
235055
235298
235540
235778
236027
236271
236517
236757
237002
237251
237496
237742
237993
238238
238501
238749
238995
239245
239495
239747
239977
240242
240492
240739
241002
241253
241501
241748
241995
242244
242494
242739
242977
243220
243475
243722
243968
244215
244464
244715
244971
245218
245459
245709
245966
246211
246446
246692
246937
247181
247425
247664
247899
248140
248390
248629
248868
249107
249352
249597
249844
250092
250337
250583
250837
251085
251327
251566
251812
252059
252307
252479
252664
252952
253236
253490
253741
253985
254239
254485
254738
254979
255219
255469
255723
255969
256214
256459
256704
256958
257214
257459
257699
257953
258210
258456
258705
258954
259198
259450
259695
259940
260174
260421
260671
260911
261145
261393
261636
261887
262079
262351
262532
262808
263124
263366
263609
263791
264107
264291
264599
264775
265090
265272
265581
265756
266052
266231
266530
266712
266965
267149
267493
267674
267994
268173
268472
268655
268956
269138
269354
269519
269817
270002
270368
270541
270860
271041
271356
271534
271840
272027
272321
272509
272812
273052
273287
273530
273763
274003
274242
274478
274705
274949
275187
275428
275652
275896
276136
276376
276621
276861
277095
277333
277585
277824
278051
278286
278529
278776
279020
279257
279491
279737
279986
280231
280468
280703
280951
281198
281449
281694
281936
282188
282443
282690
282932
283180
283426
283676
283935
284185
284433
284637
284937
285122
285364
285678
285923
286170
286424
286667
286901
287154
287409
287654
287894
288139
288382
288633
288882
289131
289377
289632
289819
290005
290287
290577
290838
291093
291345
291593
291842
292103
292354
292595
292840
293088
293340
293591
293827
294071
294317
294575
294824
295066
295311
295555
295810
296049
296307
296553
296738
296936
297232
297517
297790
298048
298310
298526
298820
299049
299336
299577
299839
300077
300340
300585
300849
301084
301337
301569
301842
302067
302337
302580
302830
303047
303329
303575
303816
304012
304307
304558
304802
305053
305304
305560
305807
306062
306309
306569
306818
307065
307316
307566
307817
308019
308302
308522
308791
309044
309288
309529
309776
309954
310171
310481
310740
310985
311228
311490
311733
311976
312217
312463
312707
312954
313197
313440
313676
313933
314172
314417
314654
314909
315154
315399
315645
315848
316117
316382
316636
316882
317126
317375
317632
317877
318126
318373
318553
318835
319021
319281
319586
319836
320084
320345
320592
320839
321090
321346
321597
321840
322091
322339
322598
322791
323071
323252
323513
323867
324116
324333
324581
324864
325117
325367
325607
325854
326109
326353
326589
326840
327080
327336
327592
327841
328017
328224
328544
328809
329058
329309
329560
329815
330074
330323
330574
330832
331087
331334
331575
331827
332074
332324
332568
332806
333058
333309
333557
333796
334041
334280
334485
334769
334947
335289
335466
335807
335985
336309
336486
336809
336988
337326
337502
337821
338000
338336
338512
338828
339012
339334
339509
339762
340043
340301
340557
340808
341046
341288
341537
341781
342025
342271
342520
342761
343012
343261
343507
343753
344001
344249
344503
344752
345004
345255
345516
345741
346014
346262
346513
346764
347016
347262
347505
347758
348015
348258
348501
348745
348986
349239
349490
349736
349981
350232
350488
350736
350979
351223
351464
351713
351967
352175
352450
352668
352954
353202
353439
353685
353926
354171
354418
354659
354895
355139
355390
355633
355862
356106
356345
356592
356837
357084
357323
357583
357840
358089
358335
358589
358845
359095
359342
359588
359836
360098
360350
360599
360852
361098
361355
361616
361866
362116
362376
362642
362900
363150
363409
363668
363928
364110
364282
364655
364845
365112
365333
365706
365883
366216
366397
366675
366842
367199
367496
367744
367993
368243
368467
368736
368981
369229
369471
369726
369971
370199
370457
370679
370944
371205
371431
371696
371952
372206
372461
372701
372951
373191
373393
373698
373942
374152
374442
374696
374918
375190
375401
375669
375852
376084
376254
376471
376633
376859
377037
377259
377429
377656
377822
378045
378221
378451
378624
378850
379010
379251
379425
379657
379827
380042
380214
380457
380617
380861
381038
381267
381433
381675
381847
382087
382255
382471
382641
382881
383042
383287
383459
383695
383866
384110
384280
384537
384707
384948
385116
385375
385544
385816
385984
386246
386414
386674
386856
387097
387269
387515
387683
387950
388128
388403
388571
388857
389031
389417
389756
390016
390266
390520
390777
391027
391265
391521
391773
392018
392261
392513
392754
393005
393252
393502
393748
394007
394191
394468
394723
394986
395241
395500
395749
396001
396251
396511
396764
397005
397249
397493
397723
397998
398244
398493
398748
399002
399251
399492
399747
399993
400247
400493
400741
400998
401261
401514
401760
402013
402265
402520
402780
403029
403276
403535
403794
404048
404296
404546
404792
404975
405292
405474
405743
406055
406306
406558
406799
407054
407305
407553
407800
408043
408295
408555
408806
409047
409297
409550
409804
410063
410307
410552
410806
411061
411317
411560
411813
412052
412308
412557
412803
413039
413291
413545
413794
414036
414217
414490
414679
414948
415207
415513
415707
415990
416251
416506
416760
417013
417269
417527
417774
418024
418284
418537
418785
419028
419282
419533
419781
420034
420276
420521
420777
421024
421262
421506
421751
422009
422263
422517
422764
423021
423277
423528
423770
424020
424267
424455
424729
424906
425160
425510
425767
426015
426260
426507
426755
427006
427252
427497
427744
428002
428245
428489
428738
428980
429230
429484
429722
429963
430217
430477
430731
430972
431229
431477
431733
431986
432234
432480
432739
432993
433241
433490
433737
433993
434240
434486
434729
434975
435231
435480
435723
435969
436220
436472
436724
436968
437218
437464
437714
437962
438207
438456
438706
438964
439218
439464
439718
439976
440226
440474
440721
440972
441227
441482
441729
441975
442219
442478
442722
442961
443208
443456
443710
443967
444219
444466
444717
444981
445227
445471
445722
445969
446228
446486
446733
446982
447238
447497
447750
447994
448250
448497
448753
449005
449260
449506
449766
450022
450268
450509
450759
451002
451253
451497
451745
451994
452253
452501
452751
452998
453249
453503
453757
454003
454257
454512
454771
454985
455243
455520
455767
456030
456285
456537
456781
457045
457298
457546
457793
458038
458286
458534
458781
459026
459268
459528
459776
460018
460271
460519
460774
461028
461275
461519
461775
462034
462289
462536
462793
463046
463299
463545
463791
464034
464288
464534
464778
464968
465244
465426
465729
465908
466269
466446
466784
466962
467294
467466
467799
467974
468306
468481
468802
468986
469315
469493
469816
470000
470326
470508
470835
471009
471327
471513
471828
471998
472313
472493
472809
472992
473311
473481
473803
473986
474271
474441
474796
474977
475310
475498
475816
475995
476322
476501
476816
476987
477310
477488
477810
477988
478299
478480
478802
478983
479296
479474
479795
479976
480301
480479
480793
480974
481299
481479
481785
481962
482282
482465
482794
482969
483278
483467
483799
483977
484284
484459
484720
484911
485216
485400
485728
485909
486246
486428
486740
486919
487238
487428
487751
487933
488254
488438
488769
488951
489269
489446
489769
489946
490271
490450
490770
490957
491281
491465
491776
491963
492284
492478
492793
492971
493305
493496
493809
493991
494310
494482
494815
494994
495315
495492
495823
496006
496312
496495
496804
496990
497294
497476
497780
497961
498278
498458
498763
498934
499248
499431
499724
499901
500233
500415
500750
500933
501244
501423
501742
501923
502233
502409
502723
502904
503212
503393
503693
503884
504183
504359
504668
504850
505149
505338
505642
505821
506124
506317
506618
506797
507115
507291
507599
507788
508102
508272
508587
508771
509094
509276
509589
509773
510074
510273
510575
510747
511062
511241
511563
511749
512057
512240
512552
512744
513056
513234
513559
513737
514069
514258
514575
514755
515081
515270
515585
515764
516087
516263
516591
516777
517084
517261
517592
517777
518084
518263
518592
518771
519101
519279
519582
519767
520106
520288
520599
520780
521099
521281
521610
521857
522046
522348
522599
522842
523079
523324
523564
523810
524057
524300
524536
524782
525030
525274
525508
525749
525991
526237
526481
526733
526974
527231
527476
527722
527970
528214
528464
528716
528956
529197
529448
529703
529951
530191
530439
530686
530938
531194
531438
531679
531935
532191
532444
532683
532941
533185
533445
533695
533942
534195
534461
534719
534966
535228
535486
535683
535971
536158
536405
536774
536964
537250
537533
537784
538035
538289
538462
538738
538917
539197
539516
539765
540017
540264
540510
540766
541006
541239
541482
541730
541968
542199
542445
542673
542932
543184
543417
543668
543919
544171
544414
544647
544899
545093
545369
545558
545799
546133
546389
546600
546886
547127
547357
547616
547871
548121
548374
548613
548860
549121
549343
549609
549859
550064
550356
550604
550789
551086
551281
551527
551897
552089
552709
552985
553237
553493
553749
554008
554256
554502
554754
555003
555196
555513
555768
555952
556279
556535
556702
557042
557232
557507
557835
558078
558268
558526
558717
558949
559126
559343
559738
560070
560276
560631
560901
561101
561440
561693
561885
562207
562467
562667
562966
563210
563412
563707
563957
564153
564445
564699
564889
565120
565404
565669
565931
566181
566420
566666
566904
567147
567400
567631
567865
568111
568363
568600
568833
569072
569313
569553
569806
570045
570283
570532
570786
571038
571279
571526
571775
572025
572274
572526
572769
573021
573272
573520
573767
574020
574275
574535
574790
575046
575308
575581
575799
576026
576354
576583
576901
577091
577345
577695
577969
578223
578478
578731
578984
579236
579499
579745
579993
580255
580507
580740
580999
581258
581504
581759
582010
582264
582507
582774
583027
583274
583522
583773
584023
584273
584514
584759
585001
585256
585505
585745
585994
586246
586497
586751
586932
587211
587395
587655
587990
588237
588488
588734
588990
589241
589485
589725
589978
590224
590469
590643
590914
591092
591355
591676
591926
592165
592388
592655
592911
593154
593397
593635
593884
594136
594381
594563
594853
595043
595278
595628
595827
596126
596306
596651
596825
597156
597343
597664
597834
598150
598323
598645
598830
599142
599314
599644
599825
600152
600331
600646
600825
601152
601330
601637
601820
602150
602329
602643
602824
603136
603320
603638
603818
604117
604306
604620
604806
605109
605289
605596
605776
606089
606272
606572
606750
607066
607252
607555
607740
608053
608234
608555
608740
609044
609233
609545
609729
610029
610218
610531
610717
611026
611209
611524
611717
612010
612198
612501
612691
613009
613198
613500
613682
613989
614183
614485
614665
614965
615149
615451
615640
615949
616123
616441
616630
616913
617178
617430
617674
617921
618183
618426
618625
618909
619185
619439
619687
619935
620115
620346
620673
620931
621180
621441
621699
621950
622194
622446
622696
622944
623197
623445
623692
623949
624203
624450
624699
624951
625203
625462
625711
625959
626219
626476
626731
626916
627196
627377
627615
627976
628160
628441
628739
628988
629232
629479
629724
629975
630229
630472
630712
630965
631218
631468
631713
631965
632210
632461
632712
632906
633182
633375
633618
633959
634207
634412
634711
634910
635155
635470
635730
635987
636241
636487
636734
636977
637232
637477
637719
637967
638215
638464
638715
638964
639220
639472
639731
639981
640226
640483
640741
640991
641235
641495
641745
642003
642262
642517
642763
643020
643276
643523
643770
644025
644280
644529
644780
645027
645275
645531
645760
646027
646212
646447
646791
646987
647273
647560
647816
648074
648330
648583
648836
649089
649346
649596
649847
