150
421
713
1049
1355
1641
1925
2212
2488
2781
3083
3392
3683
3976
4265
4532
4810
5093
5430
5770
6076
6289
6626
6813
7188
7403
7815
8016
8386
8572
8921
9120
9493
9698
10087
10295
10647
10832
11190
11382
11765
11978
12391
12702
13001
13276
13564
13883
14226
14556
14887
15179
15456
15746
16090
16464
16812
17103
17384
17669
17983
18348
18713
19112
19397
19683
19934
20143
20738
21110
21428
21698
21988
22295
22615
22884
23271
23591
23881
24065
24461
24704
25098
25409
25724
26011
26292
26574
26875
27212
27545
27879
28160
28440
28726
29025
29342
29648
29895
30237
30522
30819
31117
31421
31725
31931
32318
32532
32880
33171
33469
33668
34104
34322
34711
34899
35280
35488
35923
36173
36587
36795
37171
37404
37871
38129
38579
38788
39159
39375
39824
40089
40557
40791
41209
41551
41986
42397
42751
43075
43378
43691
44065
44458
44796
45102
45407
45722
46045
46387
46645
47060
47265
47638
47888
48245
48558
48889
49212
49512
49782
50065
50370
50662
50984
51304
51604
51876
52074
52468
52679
53103
53306
53714
53998
54285
54507
54926
55249
55554
55865
56171
56378
56736
57019
57306
57596
57820
58180
58448
58714
58918
59319
59650
59979
60269
60546
60738
61106
61328
61776
62115
62416
62695
62981
63288
63662
63992
64317
64626
64915
65211
65560
65853
66256
66589
66909
67203
67520
67860
68220
68536
68853
69149
69435
69679
70050
70400
70738
71048
71325
71603
71903
72199
72463
72863
73167
73447
73719
74017
74339
74691
74976
75338
75622
75901
76193
76529
76872
77199
77505
77804
78000
78378
78580
78989
79298
79602
79806
80153
80430
80713
81031
81379
81717
81999
82262
82455
82846
83065
83513
83857
84147
84417
84728
84987
85395
85705
86028
86308
86578
86873
87178
87521
87853
88213
88569
88874
89182
89514
89871
90212
90530
90918
91225
91535
91867
92226
92559
92889
93183
93477
93769
94078
94398
94699
94986
95272
95567
95828
96201
96508
96800
97086
97378
97666
97967
98289
98588
98889
99192
99481
99708
100057
100292
100693
101007
101317
101598
101876
102153
102460
102769
103086
103377
103653
103927
104213
104528
104849
105152
105441
105643
106035
106343
106641
106966
107279
107495
107877
108168
108471
108759
109079
109400
109617
109993
110176
110557
110856
111174
111515
111829
112123
112385
112667
112994
113300
113612
113910
114203
114467
114740
115053
115376
115692
115988
116291
116585
116863
117140
117448
117754
118044
118256
118643
118909
119173
119451
119774
120084
120389
120668
120931
121201
121473
121774
122113
122430
122728
123008
123288
123488
123870
124086
124484
124695
125068
125256
125621
125816
126204
126416
126840
127051
127420
127605
127991
128202
128732
128983
129402
129598
129973
130226
130814
131107
131538
131727
132093
132295
132749
132993
133489
133711
134128
134333
134750
134982
135478
135719
136129
136326
136716
136930
137345
137599
138076
138282
138653
138852
139253
139467
139919
140135
140511
140702
141103
141314
141737
141954
142373
142569
142943
143155
143574
143786
144185
144421
144822
145019
145397
145617
146019
146230
146661
146859
147227
147425
147832
148062
148448
148665
149054
149247
149619
149837
150236
150444
150856
151089
151491
151697
152094
152312
152733
152981
153400
153602
153970
154182
154628
154856
155275
155582
155887
156181
156522
156877
157091
157497
157805
158122
158425
158748
158957
159377
159562
159965
160276
160580
160891
161197
161412
161832
162141
162436
162735
163037
163246
163677
163976
164262
164553
164861
165178
165411
165816
166111
166392
166688
166994
167198
167615
167926
168245
168533
168828
169122
169325
169727
170045
170367
170653
170939
171238
171567
171889
172207
172513
172816
173111
173432
173765
174099
174424
174747
174963
175420
175631
176084
176304
176749
176958
177374
177609
178090
178359
178871
179094
179485
179689
180179
180422
180886
181104
181497
181691
182162
182424
182892
183120
183517
183703
184108
184343
184828
185040
185473
185687
186082
186281
186711
186959
187384
187601
187997
188189
188572
188919
189297
189634
189935
190222
190508
190810
191156
191506
191818
192121
192309
192700
192918
193297
193631
193945
194245
194525
194814
195023
195425
195811
196152
196339
196734
196949
197329
197674
198061
198386
198678
198969
199273
199595
199824
200259
200584
200885
201175
201397
201770
202082
202441
202793
203006
203364
203657
203967
204275
204616
204960
205253
205525
205722
206128
206328
206750
207066
207354
207625
207825
208215
208535
208843
209171
209480
209760
210045
210345
210658
210962
211162
211606
211799
212176
212478
212805
213125
213439
213735
214020
214296
214593
214913
215221
215518
215834
216134
216418
216708
217015
217330
217637
217964
218270
218556
218742
219159
219507
219844
220055
220451
220639
221031
221240
221684
221921
222360
222667
222993
223326
223654
223973
224224
224621
224912
225212
225531
225841
226161
226509
226837
227118
227405
227636
228029
228345
228663
228966
229251
229551
229880
230208
230514
230821
231124
231422
231726
232047
232370
232675
232993
233310
233622
233824
234239
234440
234873
235209
235506
235804
236105
236440
236768
237087
237390
237693
237997
238297
238615
238945
239262
239586
239899
240110
240523
240858
241173
241501
241832
242129
242334
242745
243096
243425
243635
244050
244272
244680
244905
245374
245592
246011
246312
246629
246961
247278
247603
247920
248228
248535
248843
249164
249472
249817
250151
250361
250754
250944
251357
251566
252003
252207
252605
252790
253202
253412
253832
254047
254464
254654
255038
255237
255664
255907
256310
256525
256943
257138
257519
257715
258130
258447
258775
259070
259346
259631
259951
260284
260608
260916
261215
261494
261698
262116
262459
262790
263103
263428
263727
263932
264334
264674
264990
265304
265613
265896
266193
266501
266906
267164
267581
267873
268163
268458
268777
269165
269510
269816
270108
270431
270766
271104
271456
271790
271986
272387
272700
273011
273337
273696
274039
274347
274640
274841
275263
275461
275980
276189
276590
276775
277217
277434
277910
278143
278569
278756
279165
279376
279807
280021
280481
280687
281073
281264
281674
281875
282323
282569
282974
283160
283561
283792
284272
284526
284971
285167
285554
285765
286225
286451
286881
287103
287499
287798
288101
288432
288754
289111
289375
289737
290033
290346
290677
291000
291333
291550
291916
292204
292515
292851
293174
293494
293796
294091
294394
294719
295030
295338
295643
295956
296249
296535
296837
297149
297478
297796
298107
298386
298678
298976
299291
299615
299929
300129
300521
300830
301141
301452
301763
302078
302381
302674
302967
303281
303592
303913
304248
304566
304852
305152
305474
305809
306153
306486
306810
307106
307439
307804
308163
308486
308799
308987
309407
309740
310100
310437
310771
311134
311450
311752
311980
312444
312772
313087
313407
313717
314023
314363
314723
315067
315368
315680
315987
316316
316667
317002
317307
317598
317929
318248
318573
318888
319139
319510
319812
320141
320452
320758
321083
321426
321749
322035
322349
322669
322996
323334
323660
323955
324235
324553
324878
325208
325531
325847
326138
326436
326774
327100
327431
327780
328135
328447
328752
329109
329454
329815
330193
330405
330827
331153
331541
331907
332281
332623
332931
333248
333681
334036
334403
334745
335059
335383
335741
336127
336458
336784
337099
337421
337744
338099
338439
338783
339114
339409
339713
340026
340384
340734
341056
341362
341552
341966
342293
342680
342999
343309
343597
343897
344212
344536
344875
345203
345529
345835
346123
346421
346739
347029
347396
347698
347990
348279
348592
348917
349273
349576
349879
350170
350467
350791
351120
351477
351792
352126
352439
352756
353073
353408
353753
354074
354393
354707
355019
355352
355786
356157
356452
356751
357063
357383
357710
358086
358414
358703
358937
359339
359675
359998
360347
360650
360962
361291
361618
361941
362266
362636
362944
363129
363563
363906
364229
364575
364924
365215
365399
365835
366196
366543
366875
367207
367503
367827
368176
368506
368822
369158
369480
369793
370106
370351
370762
370967
371441
371622
372028
372323
372722
373058
373387
373714
374010
374346
374623
375091
375434
375753
376067
376398
376791
377186
377535
377858
378204
378540
378901
379294
379606
379984
380315
380626
380949
381305
381640
381992
382300
382620
382917
383265
383635
383982
384287
384587
384887
385140
385550
385759
386201
386511
386820
387130
387440
387765
387987
388409
388721
389020
389336
389645
389992
390351
390695
390987
391281
391582
391903
392256
392587
392893
393192
393517
393848
394180
394513
394859
395176
395482
395811
396149
396487
396840
397209
397527
397823
398159
398483
398824
399187
399511
399783
400124
400546
400936
401276
401607
401909
402210
402442
402956
403318
403651
403970
404280
404604
404961
405306
405632
405960
406267
406563
406873
407217
407580
407915
408215
408500
408807
409132
409377
409831
410151
410442
410747
411060
411418
411774
411995
412412
412603
413020
413332
413660
413994
414341
414666
414954
415137
415567
415926
416294
416629
416937
417229
417562
417928
418227
418672
419007
419306
419560
419968
420310
420703
421045
421373
421695
422022
422384
422793
423202
423545
423863
424197
424555
424975
425394
425720
426033
426354
426702
427079
427486
427819
428126
428469
428826
429177
429520
429856
430168
430488
430824
431159
431492
431850
432172
432479
432791
433122
433446
433780
434114
434421
434721
435047
435280
435736
436041
436360
436642
436947
437274
437593
437904
438118
438539
438855
439174
439477
439799
440104
440342
440781
441095
441401
441600
442091
442468
442807
443119
443430
443738
444059
444293
444738
445052
445373
445750
446124
446460
446784
446994
447372
447698
448047
448380
448701
448907
449297
449611
449968
450319
450639
450947
451238
451529
451836
452163
452488
452714
453083
453420
453708
453977
454276
454498
454906
455125
455503
455786
456044
456327
456675
457000
457332
457626
457911
458173
458465
458805
459122
459456
459740
460024
460308
460593
460890
461214
461535
461824
462114
462399
462617
462976
463298
463665
464028
464349
464546
464907
465140
465628
465910
466359
466654
466926
467220
467617
468025
468543
468859
469152
469505
469922
470310
470610
471015
471204
471609
471931
472484
472886
473184
473475
473773
474107
474401
474902
475237
475505
475734
476129
476470
476800
477112
477423
477695
477908
478314
478531
478955
479166
479590
479883
480191
480486
480781
481079
481388
481717
482007
482229
482606
482930
483266
483590
483880
484164
484451
484749
485055
485365
485682
485892
486257
486572
486893
487200
487509
487837
488129
488437
488771
489114
489430
489746
490124
490452
490787
491104
491434
491736
492067
492428
492735
492982
493420
493835
494219
494563
494873
495193
495559
495916
496262
496594
496895
497184
497528
497909
498261
498592
498883
499165
499465
499800
500148
500486
500783
500993
501392
501700
502026
502366
502689
502998
503212
503597
503898
504132
504534
504885
505205
505497
505673
506036
506247
506734
506970
507375
507560
507941
508144
508588
508830
509257
509457
509844
510044
510457
510674
511160
511377
511805
512012
512417
512613
513080
513338
513792
514014
514415
514626
515038
515302
515884
516134
516531
516745
517206
517458
517996
518252
518656
518861
519314
519565
520061
520305
520710
520907
521344
521581
522039
522267
522698
522904
523316
523550
523966
524175
524593
524813
525208
525404
525838
526045
526474
526807
527115
527383
527667
527890
528287
528632
528958
529259
529531
529844
530185
530439
530819
531127
531418
531705
532011
532237
532632
532966
533289
533480
533863
534045
534489
534819
535059
535474
535781
536046
536382
536770
537115
537438
537745
538047
538258
538687
539081
539420
539713
540082
540397
540728
541066
541415
541724
541951
542346
542549
542945
543266
543629
543966
544269
544536
544855
545157
545485
545826
546135
546427
546721
547028
547332
547648
547966
548276
548558
548848
549161
549458
549745
550077
550403
550708
550908
551284
551580
551791
552211
552545
552836
553117
553409
553678
553897
554351
554669
554970
555252
555553
555862
556189
556502
556836
557063
557454
557723
558071
558412
558749
558953
559394
559581
559979
560298
560657
561028
561351
561654
561951
562268
562607
562977
563339
563637
563842
564230
564576
564916
565242
565492
565881
566182
566483
566817
567036
567463
567803
568102
568379
568667
568997
569321
569643
569963
570249
570531
570839
571179
571506
571812
572121
572394
572702
573008
573348
573660
573978
574314
574618
574893
575180
575499
575723
576143
576469
576763
577045
577348
577625
577895
578347
578546
578962
579156
579574
579903
580256
580576
580908
581106
581497
581691
582130
582346
582792
583018
583416
583602
584038
584271
584756
585079
585380
585665
585958
586168
586610
586840
587241
587542
587850
588152
588344
588757
589083
589390
589692
589982
590266
590557
590826
591219
591534
591819
591998
592385
592577
593000
593324
593632
593912
594205
594504
594710
595105
595423
595736
596017
596323
596608
596905
597205
597402
597869
598066
598445
598733
599027
599338
599562
600002
600218
600591
600896
601223
601554
601785
602174
602425
602802
603104
603413
603733
603940
604388
604612
605018
605202
605630
605961
606282
606637
606949
607226
607518
607843
608173
608453
608814
609117
609407
609709
610045
610252
610672
610873
611310
611498
611917
612114
612548
612746
613181
613401
613779
614075
614397
614742
615061
615362
615570
615942
616252
616576
616904
617216
617522
617739
618125
618430
618734
619041
619352
619661
619978
620254
620547
620759
621184
621505
621823
622129
622413
622597
623034
623388
623712
624028
624347
624651
624856
625305
625628
625950
626245
626572
626872
627201
627544
627891
628222
628532
628829
629123
629427
629754
630092
630404
630696
630996
631309
631524
631969
632197
632597
632851
633177
633483
633690
634099
634410
634743
635034
635329
635609
635919
636230
636548
636866
637144
637435
637642
638056
638388
638707
638999
639210
639574
639768
640165
640464
640786
641098
641404
641594
641971
642159
642575
642787
643199
643506
643793
644084
644387
644726
644965
645371
645671
645962
646260
646566
646898
647119
647503
647835
648068
648453
648766
649095
649320
649749
