80
355
621
885
1143
1405
1668
1928
2201
2468
2727
2986
3243
3503
3763
4026
4300
4570
4841
5115
5388
5666
5930
6197
6462
6735
7009
7266
7529
7779
8028
8277
8528
8786
9056
9333
9599
9873
10157
10438
10718
10991
11264
11536
11810
12083
12362
12647
12928
13210
13499
13782
14057
14333
14612
14877
15154
15439
15712
15988
16274
16575
16872
17169
17456
17733
18013
18284
18567
18856
19138
19418
19696
19986
20277
20566
20839
21117
21401
21695
22003
22305
22601
22901
23206
23498
23783
24064
24355
24654
24952
25251
25548
25831
26094
26358
26627
26889
27165
27453
27745
28039
28336
28638
28927
29217
29501
29790
30087
30387
30675
30956
31226
31502
31794
32084
32381
32676
32985
33294
33587
33874
34159
34444
34723
35014
35314
35625
35951
36265
36579
36895
37188
37481
37767
38061
38360
38672
38981
39272
39557
39841
40129
40406
40687
40971
41247
41533
41831
42139
42443
42752
43070
43380
43675
43951
44225
44493
44763
45037
45302
45571
45843
46118
46396
46668
46954
47277
47601
47934
48249
48548
48841
49137
49428
49712
49995
50272
50553
50839
51129
51423
51718
52005
52296
52596
52892
53177
53461
53732
54011
54279
54550
54824
55097
55377
55672
55962
56236
56507
56772
57036
57297
57566
57843
58115
58390
58660
58944
59237
59524
59795
60049
60298
60540
60779
61019
61266
61509
61756
62002
62260
62519
62767
63021
63267
63511
63760
64002
64250
64497
64736
64973
65207
65440
65677
65906
66132
66351
66570
66787
67020
67261
67521
67798
68082
68355
68612
68866
69111
69341
69573
69797
70023
70257
70494
70740
71003
71264
71525
71786
72060
72329
72585
72846
73096
73347
73598
73850
74112
74384
74647
74907
75167
75432
75696
75956
76219
76483
76740
76990
77241
77487
77729
77966
78196
78427
78663
78904
79147
79400
79646
79899
80157
80419
80674
80932
81178
81429
81675
81917
82161
82398
82629
82857
83092
83342
83591
83849
84108
84366
84614
84852
85101
85351
85589
85832
86075
86337
86605
86856
87107
87356
87606
87852
88094
88341
88592
88837
89085
89330
89591
89866
90126
90391
90668
90923
91176
91426
91687
91963
92234
92493
92747
93006
93264
93533
93801
94061
94314
94565
94831
95129
95434
95746
96053
96345
96614
96882
97140
97387
97634
97875
98116
98360
98597
98838
99075
99323
99575
99817
100067
100309
100560
100823
101086
101361
101626
101875
102135
102406
102689
102988
103328
103648
103979
104314
104664
105025
105349
105651
105963
106293
106648
107009
107360
107709
108051
108392
108725
109053
109400
109754
110087
110415
110754
111080
111417
111769
112094
112405
112747
113101
113440
113784
114086
114389
114714
115035
115356
115696
116040
116391
116730
117070
117420
117763
118085
118419
118763
119126
119493
119841
120173
120523
120866
121210
121558
121899
122254
122607
122914
123223
123541
123886
124225
124541
124847
125152
125469
125806
126149
126467
126765
127070
127389
127735
128091
128444
128791
129107
129404
129684
129970
130263
130574
130924
131272
131621
131937
132254
132546
132833
133138
133467
133798
134163
134538
134894
135244
135595
135930
136264
136581
136911
137260
137593
137929
138267
138620
138974
139327
139668
139986
140290
140596
140904
141226
141563
141899
142251
142607
142946
143281
143629
143999
144367
144703
145046
145405
145746
146095
146446
146802
147171
147503
147822
148145
148477
148833
149159
149473
149798
150124
150463
150777
151098
151432
151785
152129
152450
152766
153094
153402
153738
154095
154460
154835
155158
155490
155818
156142
156442
156730
157038
157358
157690
158026
158377
158720
159060
159364
159668
159972
160297
160620
160940
161237
161521
161801
162092
162404
162707
163033
163365
163703
163996
164283
164568
164847
165133
165435
165759
166093
166399
166718
167044
167345
167651
167959
168268
168589
168918
169219
169520
169834
170164
170491
170797
171095
171408
171736
172072
172388
172713
173045
173392
173736
174070
174392
174705
175000
175308
175631
175963
176306
176665
177026
177357
177657
177969
178294
178649
178991
179330
179644
179966
180277
180600
180921
181258
181609
181928
182244
182568
182898
183243
183587
183928
184256
184584
184914
185224
185523
185808
186084
186384
186696
187027
187358
187703
188013
188335
188666
188977
189288
189604
189929
190258
190590
190934
191250
191577
191915
192258
192609
192939
193264
193601
193930
194274
194609
194931
195265
195604
195959
196312
196639
196964
197298
197630
197953
198279
198604
198913
199216
199531
199832
200145
200468
200803
201114
201435
201757
202069
202379
202701
203037
203366
203677
203984
204288
204583
204863
205121
205372
205619
205870
206118
206361
206623
206950
207298
207637
207989
208339
208672
209003
209331
209645
209960
210281
210622
210960
211299
211627
211951
212280
212622
212946
213269
213577
213872
214153
214432
214734
215068
215408
215756
216079
216400
216717
217051
217394
217731
218062
218396
218724
219055
219384
219714
220043
220376
220693
221018
221350
221657
221953
222267
222596
222921
223232
223548
223860
224179
224493
224801
225115
225431
225747
226065
226391
226710
227043
227367
227701
228036
228369
228685
229015
229344
229665
229983
230303
230635
230961
231251
231539
231835
232156
232492
232811
233127
233447
233764
234074
234382
234694
235019
235356
235692
236024
236362
236697
237012
237325
237649
237972
238287
238626
238970
239293
239611
239942
240257
240556
240865
241179
241509
241831
242139
242447
242759
243076
243379
243678
243985
244284
244574
244868
245176
245486
245803
246118
246428
246721
247017
247315
247606
247906
248224
248568
248902
249220
249567
249907
250239
250572
250888
251194
251523
251869
252210
252560
252914
253245
253564
253879
254183
254487
254795
255106
255426
255748
256075
256383
256697
257018
257332
257631
257937
258254
258553
258860
259173
259497
259825
260136
260433
260724
261006
261316
261648
261965
262269
262582
262896
263209
263529
263838
264149
264446
264743
265046
265356
265666
265982
266263
266551
266844
267131
267414
267702
267989
268285
268593
268900
269214
269509
269813
270110
270404
270700
271005
271331
271662
272001
272342
272680
272988
273287
273588
273893
274215
274551
274884
275214
275535
275853
276167
276464
276765
277073
277390
277723
278046
278375
278696
279018
279319
279624
279940
280259
280575
280891
281215
281537
281853
282166
282485
282815
283144
283443
283749
284059
284394
284712
285021
285338
285656
285981
286307
286611
286905
287191
287501
287813
288141
288479
288792
289112
289446
289773
290089
290404
290729
291059
291380
291691
291981
292261
292550
292856
293175
293504
293823
294143
294459
294779
295106
295441
295778
296092
296394
296683
296993
297317
297638
297933
298219
298499
298783
299078
299367
299656
299963
300271
300588
300894
301205
301517
301805
302094
302389
302696
303009
303321
303625
303934
304232
304535
304844
305142
305428
305710
305999
306300
306593
306904
307237
307542
307847
308159
308473
308775
309061
309335
309609
309881
310171
310484
310810
311135
311471
311811
312149
312481
312779
313081
313387
313688
314000
314326
314660
315000
315315
315639
315970
316258
316537
316830
317127
317429
317747
318073
318383
318700
319023
319339
319629
319928
320250
320561
320876
321177
321467
321750
322036
322328
322615
322905
323203
323524
323858
324187
324526
324857
325194
325528
325843
326146
326448
326755
327063
327379
327681
327990
328302
328616
328936
329228
329511
329806
330107
330419
330745
331055
331365
331690
332008
332336
332669
333005
333346
333685
334020
334349
334657
334975
335300
335633
335967
336312
336648
336965
337267
337564
337853
338154
338478
338807
339130
339460
339799
340136
340464
340796
341113
341431
341747
342040
342318
342597
342888
343188
343516
343844
344163
344479
344815
345149
345478
345792
346094
346387
346669
346945
347232
347542
347871
348192
348517
348827
349131
349448
349754
350062
350368
350664
350949
351231
351508
351769
352028
352285
352549
352840
353152
353444
353749
354055
354354
354639
354917
355200
355476
355763
356062
356367
356681
356991
357302
357611
357924
358246
358568
358870
359167
359453
359730
359996
360268
360569
360891
361199
361505
361811
362111
362420
362709
362994
363275
363559
363853
364143
364426
364692
364955
365211
365479
365763
366047
366336
366629
366927
367211
367494
367771
368045
368325
368615
368912
369199
369474
369745
370025
370306
370592
370875
371155
371433
371708
371999
372305
372623
372947
373281
373585
373878
374174
374470
374767
375052
375343
375634
375930
376235
376543
376858
377167
377484
377800
378102
378388
378667
378942
379233
379532
379844
380161
380491
380822
381130
381427
381731
382051
382363
382670
382996
383328
383669
383987
384284
384577
384864
385167
385473
385793
386108
386413
386716
387028
387351
387679
388006
388344
388666
388986
389305
389637
389962
390289
390611
390927
391211
391491
391770
392027
392293
392569
392866
393179
393483
393772
394056
394335
394606
394875
395142
395396
395639
395885
396126
396369
396610
396849
397091
397325
397557
397785
398014
398241
398463
398684
398899
399119
399342
399576
399815
400057
400313
400559
400814
401066
401331
401606
401879
402144
402402
402656
402915
403183
403439
403688
403934
404167
404403
404650
404905
405167
405431
405702
405980
406250
406522
406789
407032
407275
407500
407731
407956
408182
408411
408650
408899
409157
409413
409699
409980
410248
410517
410776
411036
411298
411551
411805
412056
412309
412571
412837
413102
413370
413639
413904
414172
414433
414686
414937
415175
415425
415672
415917
416166
416410
416654
416900
417150
417400
417666
417925
418185
418438
418684
418927
419171
419418
419663
419908
420159
420412
420668
420924
421183
421443
421690
421949
422200
422444
422699
422942
423177
423412
423646
423880
424121
424370
424618
424861
425108
425362
425615
425877
426154
426430
426708
426981
427253
427535
427803
428078
428360
428632
428903
429185
429458
429730
430001
430261
430533
430810
431082
431360
431623
431894
432165
432437
432720
433001
433284
433569
433865
434147
434428
434716
435015
435321
435636
435941
436236
436534
436815
437102
437394
437690
437987
438288
438600
438913
439215
439520
439826
440120
440420
440724
441026
441321
441615
441914
442205
442488
442765
443032
443307
443583
443867
444150
444438
444734
445036
445339
445635
445933
446216
446495
446771
447052
447334
447626
447924
448229
448535
448837
449139
449426
449711
450003
450307
450599
450896
451203
451518
451833
452156
452481
452794
453098
453410
453718
454007
454294
454589
454863
455142
455422
455693
455947
456192
456443
456706
456983
457268
457553
457841
458137
458428
458703
458964
459227
459490
459758
460031
460291
460566
460832
461109
461396
461688
461986
462272
462551
462833
463126
463416
463707
463998
464298
464582
464869
465149
465415
465676
465935
466211
466502
466786
467087
467395
467692
467984
468278
468556
468827
469095
469355
469628
469909
470193
470465
470749
471037
471316
471608
471903
472199
472484
472775
473069
473356
473636
473920
474206
474480
474748
475013
475268
475534
475803
476086
476382
476676
476964
477245
477534
477813
478093
478377
478655
478935
479214
479493
479773
480049
480329
480617
480905
481194
481485
481769
482044
482313
482585
482858
483122
483385
483664
483956
484248
484550
484855
485151
485444
485721
485997
486259
486525
486793
487056
487326
487589
487863
488149
488435
488724
489015
489307
489590
489868
490132
490401
490672
490951
491232
491510
491800
492083
492371
492661
492943
493221
493499
493766
494038
494322
494618
494902
495181
495460
495750
496045
496351
496645
496940
497218
497501
497777
498040
498314
498591
498877
499174
499470
499755
500056
500359
500656
500952
501240
501517
501790
502066
502340
502598
502858
503112
503364
503626
503895
504171
504443
504709
504969
505237
505499
505755
506017
506267
506517
506773
507031
507287
507541
507795
508047
508285
508529
508767
509004
509237
509472
509713
509963
510214
510474
510732
510978
511223
511472
511725
511977
512229
512485
512732
512982
513247
513523
513801
514079
514367
514662
514950
515252
515562
515871
516166
516477
516780
517081
517383
517683
517958
518237
518516
518782
519040
519295
519558
519835
520124
520406
520697
520992
521279
521588
521906
522233
522547
522858
523171
523491
523788
524077
524359
524637
524920
525197
525471
525727
525979
526235
526485
526730
526984
527227
527480
527737
527995
528266
528532
528809
529089
529375
529641
529907
530172
530427
530688
530944
531207
531480
531748
532014
532275
532533
532790
533059
533341
533622
533898
534167
534433
534704
534968
535231
535489
535757
536047
536347
536630
536914
537209
537496
537775
538057
538334
538616
538895
539171
539434
539708
539976
540239
540500
540764
541034
541319
541603
541884
542166
542452
542726
543000
543271
543534
543803
544080
544378
544682
544991
545289
545582
545856
546125
546392
546664
546944
547229
547529
547840
548150
548438
548726
549011
549282
549548
549807
550057
550305
550560
550837
551118
551392
551665
551942
552216
552493
552781
553066
553338
553610
553884
554156
554428
554696
554962
555232
555497
555770
556052
556332
556610
556893
557185
557476
557765
558056
558345
558646
558947
559262
559562
559855
560139
560434
560736
561043
561356
561662
561957
562233
562502
562756
562992
563226
563458
563693
563935
564181
564435
564688
564949
565213
565470
565721
565963
566197
566433
566672
566917
567166
567420
567691
567970
568259
568547
568844
569144
569423
569705
569985
570257
570531
570794
571054
571305
571562
571815
572075
572347
572617
572894
573169
573461
573747
574028
574302
574577
574847
575111
575379
575640
575895
576155
576415
576681
576953
577213
577473
577731
577989
578247
578499
578753
579009
579265
579514
579768
580024
580281
580544
580800
581062
581322
581579
581838
582095
582347
582598
582842
583088
583338
583588
583833
584075
584317
584559
584802
585049
585300
585556
585809
586062
586315
586570
586813
587059
587296
587529
587764
588006
588250
588495
588758
589011
589258
589502
589752
590000
590242
590484
590723
590969
591227
591482
591732
591987
592238
592491
592743
593006
593265
593525
593782
594044
594312
594589
594876
595175
595456
595727
595983
596243
596508
596761
597016
597275
597537
597796
598061
598339
598609
598876
599123
599380
599625
599866
600107
600337
600574
600813
601046
601287
601531
601771
602004
602239
602472
602712
602956
603203
603459
603731
604013
604305
604611
604913
605205
605494
605779
606068
606348
606625
606901
607177
607455
607735
607999
608258
608526
608788
609059
609340
609620
609903
610173
610439
610696
610951
611192
611436
611670
611914
612153
612400
612654
612905
613159
613414
613664
613912
614161
614406
614655
614893
615133
615372
615619
615862
616095
616339
616577
616820
617082
617346
617615
617894
618171
618441
618705
618967
619224
619475
619727
619981
620234
620481
620737
620992
621248
621509
621770
622044
622328
622599
622873
623145
623413
623680
623939
624195
624452
624703
624957
625207
625465
625730
625986
626243
626506
626769
627034
627306
627578
627842
628114
628383
628645
628906
629154
629352
629607
629842
630082
630316
630561
630810
631056
631306
631561
631822
632113
632400
632703
632987
633268
633547
633830
634120
634394
634667
634939
635218
635499
635783
636042
636303
636563
636817
637076
637346
637605
637870
638127
638387
638660
638928
639188
639441
639698
639953
640211
640460
640707
640952
641201
641458
641731
642003
642281
642556
642843
643145
643441
643733
644017
644295
644572
644843
645119
645383
645651
645919
646194
646477
646755
647039
647315
647591
647862
648125
648385
648632
648877
649110
649342
649577
649811
