180
527
847
1166
1512
1832
2458
2789
3087
3420
3753
4057
4385
4719
5035
5377
5739
6060
6415
6798
7121
7480
7826
8137
8478
8817
9136
9496
9852
10182
10538
10892
11224
11582
11916
12235
12589
12940
13261
13617
13948
14283
14626
14967
15288
15638
15976
16304
16651
17018
17352
17707
18048
18371
18715
19054
19365
19721
20054
20373
20730
21067
21383
21731
22059
22378
22726
23073
23395
23747
24083
24404
24768
25120
25445
25810
26156
26491
26840
27194
27545
27873
28205
28556
28887
29234
29592
29926
30280
30636
30975
31324
31691
32019
32359
32703
33026
33357
33712
34026
34649
34975
35585
36205
36838
37442
38054
38652
39262
39860
40455
41057
41645
42221
42787
43357
43937
44525
45113
45691
46256
46817
47397
48009
48597
49184
49781
50372
50969
51558
52143
52597
52995
53238
53389
53779
54109
54441
54770
55090
55426
55788
56118
56479
56842
57192
57568
57930
58262
58604
58935
59265
59606
59958
60294
60657
61028
61370
61747
62119
62478
62854
63229
63572
63939
64280
64620
65004
65351
65701
66056
66393
66731
67097
67453
67825
68199
68548
68893
69244
69584
69934
70283
70633
70984
71334
71693
72035
72386
72744
73082
73433
73792
74123
74488
74837
75175
75531
75897
76232
76591
76954
77293
77652
78010
78336
78679
79027
79344
79685
80031
80340
80670
81025
81343
81675
82036
82370
82690
83044
83375
83692
84041
84375
84684
85035
85366
85677
86008
86335
86642
86977
87323
87648
87990
88363
88713
89053
89410
89750
90082
90425
90756
91081
91422
91784
92112
92456
92815
93166
93507
93867
94191
94521
94866
95206
95526
95885
96205
96539
96884
97232
97556
97916
98260
98578
98921
99267
99596
99930
100284
100602
100944
101282
101595
101955
102306
102629
102984
103327
103647
103996
104329
104650
105011
105353
105681
106042
106388
106719
107084
107427
107763
108119
108460
108789
109140
109474
109806
110152
110489
110821
111171
111531
111894
112219
112567
112918
113248
113594
113946
114265
114617
114963
115285
115618
115961
116267
116603
116934
117252
117597
117966
118277
118625
118955
119584
119918
120526
121155
121789
122397
123026
123616
124211
124796
125389
125983
126570
127168
127759
128356
128937
129532
130142
130740
131333
131916
132503
133098
133708
134325
134957
135585
136193
136787
137380
137957
138545
139134
139725
140324
140910
141496
142075
142649
143212
143784
144377
144961
145552
146151
146736
147325
147944
148539
149154
149748
150326
150919
151506
152126
152720
153333
153944
154533
155136
155713
156287
156867
157453
158053
158628
159210
159776
160362
160957
161532
162130
162702
163299
163889
164487
165108
165720
166319
166938
167551
168166
168780
169422
170052
170676
171320
171934
172527
173127
173720
174327
174935
175541
176147
176734
177318
177915
178504
179111
179705
180289
180885
181478
182110
182718
183342
183943
184555
185164
185789
186383
187008
187627
188243
188853
189435
190036
190635
191241
191857
192437
193040
193617
194224
194797
195382
195957
196539
197139
197745
198346
198936
199526
200115
200686
201261
201874
202463
202778
203081
203401
203758
204096
204450
204823
205178
205514
205886
206223
206545
206875
207201
207509
207849
208171
208472
208803
209148
209461
209802
210145
210458
210799
211145
211461
211795
212146
212489
212819
213206
213568
213921
214290
214651
215020
215397
215761
216106
216445
216792
217130
217489
217857
218202
218573
218945
219307
219670
220030
220365
220719
221072
221400
221754
222103
222425
222780
223138
223462
223820
224157
224476
224822
225156
225470
225825
226173
226502
226836
227184
227519
227846
228180
228496
228803
229130
229460
229792
230115
230481
230832
231164
231542
231927
232261
232613
232971
233298
233649
234010
234330
234676
235028
235344
235690
236035
236342
236677
237026
237348
237667
237996
238315
238627
238964
239297
239630
239954
240322
240674
241005
241357
241715
242046
242397
242752
243085
243445
243802
244127
244474
244815
245135
245460
245809
246138
246459
246805
247151
247467
247817
248154
248478
248814
249154
249467
249809
250147
250469
250806
251158
251473
251801
252138
252481
252804
253167
253517
253852
254191
254541
254872
255215
255556
255886
256227
256557
257199
257518
257837
258167
258505
258832
259192
259548
259889
260236
260589
260933
261273
261624
261960
262284
262626
262957
263270
263623
263964
264271
264618
264971
265305
265648
265999
266340
266681
267046
267401
267748
268106
268449
268787
269129
269464
269782
270111
270438
270754
271082
271404
271720
272050
272388
272710
273082
273435
273782
274131
274482
274813
275162
275484
275802
276128
276464
276783
277148
277510
277863
278221
278591
278950
279280
279628
279987
280319
280662
281010
281341
281679
282014
282345
282672
283034
283386
283728
284077
284426
284760
285111
285452
285783
286108
286446
286770
287105
287441
287764
288379
288995
289632
290246
290880
291484
292077
292654
293227
293815
294384
294986
295574
296156
296739
297318
297915
298516
299105
299695
300268
300839
301416
301987
302590
303179
303814
304424
305034
305633
306212
306813
307393
307981
308567
309172
309793
310381
311000
311610
312226
312839
313457
314065
314664
315235
315833
316427
317030
317637
318250
318862
319458
320052
320664
321282
321882
322487
323085
323710
324324
324935
325554
326141
326743
327339
327936
328539
329130
329742
330339
330940
331552
332152
332747
333348
333929
334529
335113
335734
336334
336940
337568
338170
338794
339401
340013
340611
341194
341784
342386
342989
343617
344213
344827
345429
346017
346604
347207
347815
348418
349023
349628
350242
350830
351427
352002
352583
353172
353755
354358
354938
355546
356124
356705
357297
357877
358486
359087
359718
360338
360963
361581
362169
362760
363354
363957
364551
365156
365749
366349
366946
367540
368143
368749
369359
369966
370585
371226
371835
372440
373021
373606
374207
374821
375456
376062
376379
376677
377028
377370
377689
378070
378454
378816
379216
379577
379932
380299
380644
380990
381349
381693
382026
382367
382704
383039
383379
383722
384042
384399
384753
385099
385448
385798
386130
386491
386849
387194
387548
387896
388224
388561
388888
389206
389527
389857
390178
390530
390899
391246
391600
391966
392311
392660
393028
393360
393708
394070
394411
394769
395149
395486
395831
396168
396484
396819
397163
397473
397821
398183
398510
398861
399244
399589
399927
400278
400621
400959
401310
401668
402004
402375
402732
403075
403412
403742
404066
404406
404745
405061
405387
405723
406048
406384
406754
407104
407429
407776
408123
408434
408784
409127
409439
409751
410081
410399
410726
411073
411429
411765
412142
412493
412843
413194
413542
413872
414223
414572
414914
415264
415611
415943
416290
416632
416965
417306
417657
418006
418332
418671
419028
419345
419702
420087
420424
420817
421188
421530
421869
422207
422525
422889
423253
423593
423968
424332
424674
425044
425389
425719
426060
426388
426727
427066
427401
427761
428115
428457
428827
429177
429505
429868
430233
430580
430971
431345
431704
432066
432410
432749
433064
433386
433691
434287
434893
435474
436068
436665
437261
437876
438483
439082
439688
440274
440900
441481
442094
442689
443280
443870
444437
445019
445602
446187
446769
447349
447957
448583
448891
449200
449567
449942
450300
450728
451121
451490
451859
452197
452552
452904
453250
453578
453905
454224
454575
454915
455250
455615
455973
456312
456671
457008
457330
457682
458000
458325
458645
459236
459830
460417
461001
461595
462175
462761
463354
463956
464563
465163
465774
466371
466940
467520
468106
468709
469320
469941
470590
471204
471835
472443
473041
473633
474220
474806
475412
476003
476608
477206
477799
478409
479010
479628
480234
480847
481484
482083
482708
483306
483925
484531
485136
485736
486339
486918
487506
488086
488671
489284
489903
490520
491137
491756
492375
492985
493592
494211
494818
495412
496009
496590
497200
497802
498435
499062
499683
500309
500892
501503
502097
502687
503278
503870
504467
505084
505700
506319
506951
507575
507900
508210
508531
508877
509207
509536
509885
510213
510561
510933
511276
511632
512001
512343
512705
513071
513409
513757
514108
514431
514784
515143
515476
515837
516197
516544
516903
517274
517620
517992
518349
518712
519061
519409
519777
520117
520477
520832
521191
521553
521907
522270
522634
522994
523356
523727
524077
524431
524791
525135
525508
525889
526233
526597
526974
527325
527690
528041
528376
528739
529103
529435
529800
530148
530478
530826
531168
531484
531833
532173
532490
532848
533194
533516
533869
534211
534538
534895
535235
535564
535934
536284
536612
536976
537315
537654
537999
538374
538725
539079
539442
539800
540145
540521
540875
541253
541645
542002
542365
542739
543087
543453
543805
544135
544494
544859
545202
545588
545957
546299
546675
547012
547352
547715
548052
548388
548741
549082
549435
549809
550183
550533
550914
551298
551651
552024
552394
552736
553093
553449
553776
554122
554473
554816
555160
555531
555863
556191
556528
556843
557183
557554
557876
558243
558623
558959
559332
559668
559995
560316
560670
560986
561344
561692
562017
562387
562767
563098
563490
563846
564185
564562
564906
565248
565588
565909
566232
566580
566916
567257
567620
567972
568305
568685
569037
569385
569744
570089
570431
570779
571135
571466
571803
572143
572465
572811
573167
573489
573842
574191
574529
574877
575237
575571
575929
576306
576648
577008
577367
577691
578027
578352
578984
579310
579610
579950
580298
580616
580977
581352
581692
582050
582415
582748
583112
583456
583790
584159
584514
584837
585184
585513
585829
586170
586511
586833
587194
587540
587874
588249
588596
588943
589298
589647
589979
590344
590688
591028
591371
591709
592039
592373
592712
593043
593391
593747
594081
594426
594788
595128
595457
595826
596195
596533
596911
597271
597606
597988
598339
598672
599022
599347
599671
600020
600363
600712
601058
601413
601751
602100
602457
602804
603156
603500
603847
604195
604531
604874
605207
605541
605873
606208
606561
606902
607249
607606
607945
608300
608667
609004
609343
609686
610032
610365
610725
611072
611403
611761
612119
612452
612813
613153
613486
613849
614204
614560
614923
615302
615661
616029
616392
616740
617088
617435
617781
618123
618479
618816
619150
619499
619837
620180
620553
620886
621239
621603
621946
622301
622668
623006
623347
623703
624048
624391
624746
625096
625431
625787
626127
626466
626801
627135
627463
627805
628155
628489
628822
629175
629549
629886
630250
630604
630928
631281
631630
631949
632297
632621
633248
633580
633889
634241
634585
634906
635261
635622
635962
636345
636706
637057
637432
637786
638133
638492
638824
639160
639513
639852
640203
640559
640921
641264
641628
641989
642344
642707
643073
643424
643774
644140
644480
644833
645173
645513
645837
646166
646799
647127
647438
647776
648123
648455
648811
649141
649500
649861
