192
539
859
1177
1524
1845
2456
2801
3098
3431
3766
4068
4396
4731
5046
5389
5751
6071
6425
6809
7131
7491
7837
8148
8489
8828
9147
9507
9864
10192
10548
10902
11234
11592
11927
12246
12600
12952
13271
13627
13959
14293
14636
14979
15297
15648
15988
16314
16661
17029
17363
17718
18059
18380
18727
19065
19377
19731
20064
20384
20741
21079
21394
21742
22071
22389
22737
23085
23407
23758
24094
24416
24780
25130
25457
25822
26167
26503
26852
27205
27557
27885
28215
28568
28898
29245
29605
29937
30291
30648
30985
31335
31703
32030
32370
32714
33038
33367
33722
34037
34648
34986
35580
36837
37436
38049
38650
39256
39857
40450
41054
41640
42232
42799
43369
43948
44538
45124
45703
46267
46828
47409
48020
48609
49194
49793
50383
50980
51570
52153
52608
53005
53243
53391
53790
54119
54451
54781
55100
55436
55799
56127
56489
56854
57204
57578
57942
58273
58614
58947
59275
59617
59970
60305
60668
61039
61381
61758
62130
62488
62865
63241
63584
63950
64291
64632
65015
65363
65713
66067
66404
66742
67109
67465
67835
68211
68559
68905
69255
69597
69945
70293
70646
70995
71345
71706
72046
72397
72754
73093
73442
73803
74131
74496
74848
75185
75540
75908
76243
76602
76965
77303
77663
78021
78346
78690
79039
79354
79695
80042
80352
80681
81036
81355
81686
82046
82382
82702
83056
83387
83703
84052
84385
84696
85046
85378
85689
86019
86347
86654
86989
87335
87661
88001
88373
88726
89065
89421
89764
90093
90436
90769
91092
91432
91796
92123
92466
92825
93177
93517
93877
94202
94531
94876
95218
95536
95894
96217
96548
96894
97242
97565
97925
98270
98586
98932
99278
99607
99940
100294
100613
100953
101293
101606
101965
102317
102640
102994
103337
103660
104007
104339
104660
105022
105365
105692
106053
106400
106730
107096
107438
107775
108130
108473
108800
109150
109485
109820
110163
110501
110834
111181
111541
111906
112230
112579
112930
113259
113604
113957
114275
114627
114974
115296
115629
115971
116277
116614
116944
117263
117606
117976
118286
118634
118967
119578
119930
120520
121149
122390
123626
124221
124805
125399
125993
126580
127179
127770
128367
128947
129545
130153
130752
131344
131927
132514
133109
134320
134951
135579
136189
136780
137391
137969
138558
139145
139737
140335
140921
141507
142085
142659
143220
143795
144386
144972
145562
146144
146730
147319
147938
148537
149150
149740
150321
150912
151503
152120
152718
153331
153938
154530
155130
155710
156865
157447
158046
158625
159203
159774
160357
160956
161525
162124
162697
163293
163885
164482
165107
165715
166319
166933
167546
168166
168774
169419
170051
170674
171320
171929
172521
173126
173714
174326
174929
175539
176144
176728
177317
177909
178503
179106
179702
180284
180881
181472
182108
182712
183335
183942
184548
185163
185782
186382
187002
187621
188241
188847
189434
190030
190634
191238
191853
192433
193034
193616
194219
194793
195377
195957
196534
197139
197739
198343
198935
199521
200113
200680
201260
201868
202463
202790
203094
203412
203770
204108
204462
204834
205189
205526
205897
206235
206556
206887
207213
207522
207861
208183
208485
208814
209159
209473
209814
210156
210471
210810
211155
211474
211807
212157
212500
212831
213217
213579
213933
214301
214665
215031
215409
215774
216118
216458
216804
217141
217501
217870
218214
218583
218958
219318
219682
220043
220376
220731
221084
221412
221766
222115
222437
222792
223150
223473
223830
224168
224488
224833
225169
225482
225836
226183
226514
226846
227194
227531
227857
228190
228509
228814
229140
229472
229805
230126
230493
230844
231175
231554
231939
232272
232624
232984
233309
233661
234021
234341
234688
235040
235356
235701
236046
236353
236689
237037
237360
237679
238008
238327
238641
238975
239308
239642
239966
240334
240686
241016
241368
241727
242056
242409
242763
243096
243457
243814
244138
244485
244826
245147
245472
245819
246150
246470
246816
247163
247478
247827
248165
248488
248824
249166
249479
249819
250157
250481
250816
251169
251485
251812
252148
252493
252815
253179
253528
253863
254202
254551
254885
255226
255568
255897
256239
256569
257197
257530
257849
258178
258515
258844
259202
259559
259901
260247
260601
260945
261283
261635
261972
262294
262637
262968
263280
263634
263974
264283
264629
264982
265316
265659
266009
266351
266692
267057
267412
267759
268116
268459
268798
269139
269475
269793
270121
270449
270766
271093
271414
271732
272061
272398
272722
273093
273445
273794
274142
274493
274824
275172
275496
275813
276139
276475
276795
277158
277522
277874
278233
278602
278962
279291
279640
279998
280332
280673
281022
281353
281690
282025
282357
282684
283047
283397
283739
284088
284437
284772
285122
285463
285794
286119
286456
286782
287115
287452
287776
288374
288988
289629
290239
290873
291477
292088
292664
293238
293825
294394
294997
295584
296167
296749
297330
297925
298526
299115
299706
300277
300850
301427
301998
302602
303190
303808
304422
305028
305628
306206
306807
307387
307974
308561
309165
309791
310376
310993
311605
312220
312838
313452
314058
314657
315229
315830
316420
317024
317631
318243
318860
319453
320045
320658
321275
321879
322481
323082
323704
324321
324929
325547
326138
326737
327336
327930
328535
329123
329739
330333
330938
331546
332150
332741
333343
333928
334523
335110
335729
336334
336935
337568
338169
338788
339398
340008
340606
341193
341778
342385
342984
343612
344208
344822
345423
346011
346602
347200
347813
348411
349020
349625
350236
350827
351421
352001
352576
353167
353752
354352
354935
355541
356120
356699
357296
357872
358483
359082
359711
360335
360957
361581
362163
362759
363353
363951
364548
365150
365748
366345
366940
367538
368137
368749
369353
369964
370583
371221
371831
372434
373018
373600
374206
374816
375451
376057
376390
376688
377039
377382
377700
378080
378466
378828
379227
379589
379943
380311
380656
381002
381361
381705
382038
382379
382716
383051
383390
383734
384053
384410
384765
385111
385459
385810
386141
386503
386861
387205
387559
387909
388236
388574
388900
389218
389538
389868
390191
390541
390911
391258
391611
391978
392322
392670
393039
393371
393720
394081
394422
394780
395160
395497
395841
396180
396495
396831
397174
397484
397832
398194
398522
398873
399255
399601
399938
400289
400633
400971
401320
401679
402015
402386
402744
403086
403423
403754
404077
404417
404756
405073
405398
405735
406061
406395
406765
407116
407441
407787
408134
408445
408794
409138
409451
409762
410091
410409
410738
411083
411440
411776
412152
412504
412854
413205
413554
413883
414234
414584
414924
415275
415622
415954
416301
416643
416978
417316
417667
418017
418343
418682
419041
419355
419713
420098
420435
420828
421200
421541
421880
422220
422536
422900
423265
423604
423979
424343
424686
425055
425401
425730
426070
426400
426738
427076
427411
427771
428126
428467
428837
429188
429515
429879
430243
430591
430981
431357
431714
432077
432420
432759
433074
433392
433700
434296
434902
435484
436078
436676
437271
437886
438494
439091
439698
440285
440911
441491
442105
442700
443292
443880
444449
445031
445614
446197
446781
447359
447969
448594
448901
449210
449576
449953
450310
450738
451131
451500
451868
452209
452562
452914
453259
453590
453914
454234
454585
454926
455260
455625
455983
456322
456681
457017
457340
457691
458010
458334
458655
459245
459839
460427
461012
461604
462185
462771
463364
463966
464573
465173
465785
466382
466951
467531
468117
468719
469314
469935
470585
471198
471829
472438
473026
473627
474213
474800
475405
476001
476603
477198
477794
478402
479004
479621
480228
480840
481478
482077
482701
483300
483918
484529
485130
485733
486332
486916
487499
488080
488664
489280
489896
490513
491131
491749
492369
492978
493589
494205
494814
495407
496003
496585
497194
497796
498429
499059
499677
500303
500886
501496
502091
502680
503275
503863
504465
505077
505698
506314
506945
507569
507912
508221
508542
508889
509218
509547
509898
510224
510573
510944
511287
511643
512012
512355
512717
513083
513419
513768
514120
514443
514796
515154
515488
515848
516209
516556
516914
517284
517632
518003
518360
518723
519072
519419
519789
520127
520488
520844
521202
521565
521919
522281
522646
523005
523366
523739
524088
524443
524803
525146
525519
525900
526244
526608
526984
527336
527702
528052
528388
528750
529115
529445
529812
530159
530489
530837
531180
531496
531845
532184
532501
532860
533205
533527
533881
534222
534550
534905
535246
535576
535945
536296
536623
536986
537326
537665
538010
538384
538736
539090
539453
539812
540156
540533
540886
541264
541656
542012
542375
542751
543098
543464
543815
544146
544506
544870
545213
545598
545968
546310
546687
547025
547364
547726
548065
548399
548753
549093
549446
549820
550195
550545
550925
551311
551662
552035
552405
552747
553104
553461
553786
554133
554484
554828
555170
555542
555874
556201
556539
556854
557194
557566
557886
558254
558634
558970
559343
559678
560005
560327
560680
560996
561354
561703
562028
562398
562778
563110
563500
563857
564196
564572
564916
565259
565598
565921
566242
566591
566927
567268
567631
567983
568315
568695
569049
569396
569754
570101
570443
570790
571147
571477
571815
572154
572476
572823
573178
573499
573853
574203
574540
574889
575249
575583
575941
576318
576659
577019
577377
577701
578038
578363
578978
579321
579621
579961
580308
580626
580989
581363
581704
582061
582427
582759
583123
583468
583800
584170
584525
584848
585196
585524
585839
586182
586521
586845
587205
587552
587886
588260
588608
588955
589308
589659
589990
590356
590699
591040
591382
591719
592051
592385
592724
593054
593402
593758
594092
594438
594801
595140
595468
595837
596207
596544
596923
597282
597617
597999
598349
598684
599032
599358
599683
600031
600373
600724
601068
601424
601763
602111
602467
602815
603167
603511
603856
604204
604542
604885
605218
605552
605883
606218
606573
606913
607260
607617
607955
608310
608678
609014
609354
609698
610044
610377
610735
611083
611415
611773
612131
612463
612825
613165
613500
613861
614215
614573
614934
615314
615674
616041
616404
616753
617100
617447
617791
618134
618491
618827
619161
619510
619849
620191
620564
620897
621248
621613
621956
622311
622679
623017
623358
623714
624059
624402
624754
625107
625441
625797
626138
626476
626812
627145
627475
627814
628166
628500
628832
629185
629559
629895
630261
630613
630939
631292
631641
631960
632308
632632
633243
633591
633901
634253
634596
634918
635272
635633
635973
636357
636719
637068
637443
637797
638145
638504
638835
639171
639524
639863
640214
640570
640932
641275
641640
642001
642355
642718
643084
643434
643785
644151
644490
644844
645184
645524
645848
646178
646793
647138
647449
647787
648134
648466
648821
649152
649511
649872
