500
745
1008
1668
1913
2166
2839
3079
3681
3916
4520
4765
5351
5593
5864
6491
6732
6989
7238
7501
7761
8011
8262
8951
9902
10302
10552
10810
11470
11710
11981
12245
12499
12757
13013
13271
13534
13800
14067
14329
15329
15735
15977
16236
16929
17174
17432
17695
18415
18906
19140
19401
19659
19913
20177
21138
21571
21814
22079
22492
22735
22975
23239
23895
24135
24393
24648
25362
26109
26818
27058
27316
27568
27829
28090
28346
28600
28859
29122
29382
30017
30265
30528
30786
30998
31298
31543
31803
32486
32735
33000
33259
33520
33776
34313
34564
34834
35520
35760
36032
36294
36981
37221
37495
38203
38448
38712
38970
39677
39922
40179
40882
41134
41394
42078
42326
42591
43260
43507
43777
44451
44692
44954
45211
45472
45727
46403
46648
46917
47184
47450
47701
47964
48222
48486
48749
49017
49881
50377
50624
50890
51145
51407
52014
52269
52533
53188
53444
53703
54368
54616
54873
55559
55806
56071
56757
57000
57257
57517
57776
58035
58949
59464
59706
59966
60646
60899
61164
61428
61692
61953
62637
62884
63507
63748
64338
64586
65176
65423
65680
66330
66580
66836
67471
67718
67982
68620
68855
69449
69697
69953
70594
70836
71101
71361
72011
72255
72872
73103
73358
73611
73870
74524
75220
75462
75724
76397
76629
76896
77570
77810
78072
78734
78982
79247
79495
79747
80005
80698
80942
81203
81458
81715
81982
82237
82504
82762
83030
83292
83561
83820
84088
84352
84612
85185
85435
85712
85971
86237
86599
86832
87245
87483
87720
87964
88231
88496
88757
89007
89271
89536
89802
90525
90777
91041
91740
92006
92618
92868
93132
93393
93658
93897
94274
94522
94796
95493
95737
95999
96263
96532
96797
97152
97317
97510
97755
98419
98658
98929
99189
99458
100084
100330
100595
101273
101520
101780
102036
102992
103397
103646
103911
104604
104843
105106
105823
106344
106591
106850
107113
107378
107641
107904
108170
108852
109362
109605
109871
110133
110399
111080
111321
111587
111849
112117
112385
113385
113888
114132
114735
114972
115234
115496
115757
116009
116268
116527
116798
117467
117711
118029
118340
118588
118859
119512
119756
120023
120276
120541
120800
121465
121713
121978
122236
122509
122699
123094
123340
123600
123853
124113
124438
124697
124936
125202
125452
125712
125954
126417
126668
126938
127460
127631
127845
128003
128556
129063
129299
129574
129838
130104
130359
130623
130890
131882
132344
132590
132857
133117
133376
133976
134223
134500
134865
135182
135422
135693
135960
136217
136474
136733
137704
138190
138431
138696
138960
139225
139484
139739
139967
140294
140568
140840
141113
141372
141633
141896
142168
143192
143600
143854
144116
144375
145067
145319
145588
146240
146482
146743
147011
147289
147568
147812
148074
148339
148609
148877
149566
149812
150076
150792
151038
151302
151569
151841
152104
153038
153480
153731
153990
154662
154915
155183
155443
155705
156373
156621
156893
157555
157796
158062
158325
158588
158848
159106
159364
159646
159893
160166
160426
160687
160953
161700
161939
162206
162468
162734
163366
163614
163878
164142
164418
164683
164948
165593
165835
166113
166378
167357
167835
168089
168347
169012
169264
169539
170201
170451
170719
170981
171598
171839
172104
172367
173092
173337
173604
173874
174139
174399
175100
175337
175604
175868
176222
176388
176651
177311
177553
177804
178459
178707
178972
179225
179484
179736
179999
180264
180525
181229
181479
181735
181997
182270
182529
182790
183051
183644
183896
184161
184422
184687
185338
185582
185852
186562
186807
187445
187697
187960
188221
188490
188753
189014
189562
189812
190083
190761
191008
191625
191872
192137
192390
192653
192922
193181
193715
193956
194220
194886
195132
195400
196104
196354
196619
196878
197141
197782
198041
198308
198571
198836
199498
199749
200014
200275
200817
201060
201329
201593
201851
202116
202887
203131
203403
203673
203940
204206
204916
205159
205431
206141
206391
206659
206920
207186
207859
208107
208378
208646
209207
209447
209719
209984
210171
210325
210673
210921
211191
211447
211716
211989
212253
212526
212798
213068
213338
214066
214316
214588
214856
215137
215801
216059
216339
216607
217174
217421
217693
217962
218235
218793
219036
219311
219582
219857
220538
220792
221069
221339
221908
222155
222428
222701
222970
223241
223520
224269
224529
224805
225494
225746
226014
226706
226950
227211
227894
228140
228406
228665
228936
230048
230549
230810
231085
231357
231623
231894
232169
232440
233553
234041
234296
234566
235254
235500
235775
236047
236311
236947
237206
237483
237752
238288
238537
238813
239084
239352
240004
240260
240538
240801
241064
241705
241963
242240
242510
242780
243044
243319
243595
244064
244276
244520
244792
245053
245315
245587
245847
246103
246372
246637
246890
247174
247432
247697
247957
248215
248474
248739
248992
249230
249503
249781
250057
250349
250591
250826
251115
251374
251639
251917
252145
252448
252717
252995
253267
253534
253802
254394
254637
254880
255210
255454
255726
255986
256266
256534
256795
257429
257670
257943
258209
258467
258742
258993
259277
259553
259825
259948
260089
260359
260646
260991
261286
261524
261786
262426
262687
262826
262948
263214
263614
263873
264110
264375
264649
264917
265171
265435
266094
266321
266605
266947
267228
267481
267813
268130
268363
268634
269292
269534
269796
270459
270706
270980
271237
271496
272207
272450
272711
272972
273229
273489
273757
274029
274288
274973
275227
275495
276156
276406
276670
276936
277710
277956
278224
278877
279113
279381
280041
280290
280558
281235
281486
281756
282024
282706
282952
283222
283880
284123
284382
285061
285308
285572
286241
286488
286757
287014
287270
287528
287804
288066
288336
288597
288861
289131
289398
289666
289942
290625
290879
291157
291422
291689
292359
292611
292881
293612
293859
294134
294848
295099
295371
296060
296308
296574
297253
297510
297779
298038
298492
298850
299097
299370
300050
300298
300568
301244
301493
301756
302011
302662
302911
303175
303847
304089
304354
305062
305305
305571
305837
306099
306756
307006
307274
307541
307802
308067
308328
308598
309101
309346
309609
310285
310539
311204
311451
311724
312419
312667
312933
313200
313465
313728
313986
314715
315693
316092
316380
316546
316860
317114
317374
318069
318316
318576
318838
319730
320218
320469
320736
320994
321259
321529
321793
322058
322318
322589
323726
324170
324428
324700
324964
325225
325491
325761
326390
326630
326897
327595
327850
328119
328387
329353
329871
330122
330387
330652
330915
331180
331442
332124
332371
332640
333331
333574
333843
334113
334371
334637
335300
335556
335829
336090
336354
336626
336892
337479
337724
337991
338257
339221
339639
339892
340160
340856
341098
341366
341640
341913
342180
342442
342708
342981
344493
344948
345196
345463
345727
345991
346257
346529
346800
347917
348365
348617
348878
349583
349833
350104
350368
350637
350911
351184
351454
351726
352509
353985
354433
354682
354947
355205
355475
355740
356006
356274
356542
356807
357070
358251
358699
358947
359217
359872
360114
360381
360650
360914
361174
361435
362069
362319
362587
362857
363126
363887
364414
364654
364928
365193
365456
365725
365994
367034
367445
367698
367967
368237
368501
368771
369043
369306
370174
371147
371605
371860
372135
372396
372661
372922
373190
373727
373973
374236
374888
375142
375414
375676
376359
376613
376883
377146
377412
377682
377942
378213
378491
380604
381032
381291
381567
381828
382097
382355
382626
382903
383169
383433
383702
383972
384967
385506
385761
386034
386301
386566
386826
387090
387355
387627
388345
388856
389112
389378
389649
390349
390596
390867
391135
391366
391554
391804
392074
392345
392612
392876
393143
394064
395018
395437
395691
395957
396215
396478
398064
398501
398767
399033
399297
399563
399828
400087
400358
400628
400896
401689
402692
403132
403381
403649
403913
404170
404431
404697
404966
405231
405909
406157
406417
406682
406956
407218
408472
408964
409206
409469
409732
409994
410255
410517
410776
411037
411309
411574
411838
412819
413544
413794
414057
414325
414593
414861
415124
415391
416139
417587
418017
418264
418532
418799
419061
419330
419605
419872
420145
420413
420688
420963
421962
422404
422663
422934
423198
423461
423732
424013
424285
424553
425628
426061
426314
426576
426844
427120
427385
427654
428814
429267
429519
429779
430052
430327
430595
430861
431131
431399
431666
432797
433373
433626
433903
434162
434431
434700
434969
435239
435518
435786
436868
437408
437656
437928
438201
438469
438736
439006
439269
439538
439820
440087
440544
440726
440984
441250
441926
442173
442436
442702
442978
443245
443514
443789
444543
446035
446341
446524
446687
446890
447119
447383
447607
447840
448085
448857
449265
449514
449785
450049
450312
452335
452807
453055
453315
453580
453838
454107
454381
454639
454902
455163
455429
455826
456364
456800
457041
457311
457574
457832
458101
458361
458630
458902
459171
459435
460555
461380
462315
463217
463746
463989
464252
464502
464759
465017
465280
465540
465799
467378
467794
468047
468315
468577
468827
469085
469343
469598
469858
470126
470386
471086
471634
471881
472143
472405
472671
472938
473203
474693
475096
475343
475605
475862
476126
476384
476646
476908
477166
477428
477702
477961
478228
478490
479736
480081
480493
480744
481012
481277
481533
481792
482055
482312
482576
483288
483818
484067
484707
484967
485237
485916
486160
486427
486686
486949
487227
487491
487756
488521
490018
490462
490708
490965
491219
491485
491748
492014
492286
492551
492812
493869
494775
495674
496176
496428
496698
496954
497217
497479
497739
497997
498261
498528
498793
499484
500412
500934
501177
501443
501713
501972
502229
502485
502751
503018
503279
503542
503802
504066
504325
504592
504864
505722
507163
507571
507822
508089
508347
508605
508868
509132
509394
509662
509922
510186
510454
512506
512928
513174
513432
513691
513951
514212
514478
514746
515003
516058
516897
517820
518725
519626
520132
520377
520645
520901
521161
521412
521672
521936
522190
522448
522704
522955
523658
524163
524407
524675
524936
525204
525462
525719
525978
526245
526508
526773
527045
527305
528067
528586
528829
529093
529355
529609
529874
530138
530398
530656
530916
531187
531455
531724
532349
532600
532877
533142
533415
534964
535408
535664
535929
536202
536472
536734
536997
537259
537539
537812
538080
539183
539614
539863
540131
540394
540666
540941
541202
542189
542761
543002
543266
543522
543786
544055
544315
544578
544851
545125
545862
546848
547334
547583
547846
548112
548381
548647
548916
549188
549455
549717
549989
550264
550532
550808
551956
552411
552664
552928
553194
553468
553730
553990
554252
554521
554783
555059
556015
556544
556800
557074
557335
557601
557876
558146
558420
558692
558960
559226
559492
559770
560870
561315
561568
561841
562114
562379
562651
562929
563193
563468
563740
564013
564281
564979
565484
565735
566013
566285
566561
566829
567098
567371
567646
567929
568209
568485
568760
569043
569932
570483
570739
571018
571294
571571
571837
572114
573394
573996
574248
574521
574794
575060
575332
575615
575886
576154
576426
577541
577987
578238
578520
578798
579070
579341
579612
579886
580157
580439
580718
580987
581953
582347
582597
582866
583134
583406
583679
583953
584656
585660
586083
586327
586599
586862
587123
587387
587647
588453
588952
589200
589473
589743
590017
590282
590553
590821
591099
591382
591651
592532
593077
593335
593606
593872
594143
594420
594693
594964
595229
595496
595768
596045
597210
598175
598715
598958
599230
599498
599760
600029
600288
600560
600836
601103
601366
601628
601898
602165
603047
603531
603784
604055
604320
604580
604845
605115
605789
606721
607173
607422
607682
607942
608205
608463
608728
608992
609254
609517
609775
610047
610688
610934
611213
611488
611760
613359
613565
613793
614050
614346
614629
615354
616260
617130
617973
618811
619644
619890
620148
620393
620646
620904
621154
621419
621683
621933
622196
622452
622723
622991
623255
623896
624390
624638
624911
625168
625426
625691
625961
626224
626488
626757
627024
627287
627551
627823
628091
628357
629059
629569
629747
629983
630486
630736
631001
631259
631517
631776
632035
632304
632579
632848
633575
634631
635066
635321
635594
635860
636122
636384
636652
636924
637193
637463
637734
638001
638951
639455
639712
639985
640252
640526
640793
641061
641327
641598
641881
642155
643272
643845
644094
644362
644634
644907
645180
645454
645721
645986
646254
646529
647172
647422
647689
647964
648239
648854
649108
649377
