493
738
1001
1247
1658
1903
2158
2830
3067
3669
3911
4144
4513
4752
5344
5586
5856
6483
6722
6984
7233
7494
7754
8004
8256
8942
9892
10296
10542
10797
11463
11704
11974
12237
12493
12748
13004
13265
13527
13791
14058
14320
15319
15728
15967
16227
16919
17164
17424
17685
18404
18895
19132
19393
19652
19906
20167
20842
21129
21562
21805
22067
22521
22727
22966
23231
23887
24127
24385
24641
25354
26101
26810
27049
27308
27560
27822
28083
28339
28592
28851
29114
29374
30009
30256
30521
30779
31294
31536
31797
32478
32727
32993
33252
33511
33770
34306
34556
34825
35512
35750
36021
36285
36974
37213
37487
38194
38438
38704
38961
39669
39910
40170
40873
41126
41384
42070
42315
42579
43250
43497
43768
44442
44685
44947
45201
45463
45720
46394
46640
46909
47176
47440
47697
47956
48215
48477
48742
49009
49871
50368
50616
50882
51136
51399
52006
52261
52526
53180
53433
53694
54360
54606
54865
55552
55799
56063
56748
56992
57249
57508
57769
58028
58939
59456
59700
59962
60638
60891
61155
61417
61682
61943
62627
62873
63497
63734
64331
64575
65169
65413
65672
66324
66570
66828
67463
67708
67972
68611
68845
69442
69688
69944
70588
70830
71095
71354
72003
72246
72866
73097
73354
73607
73866
74517
75216
75458
75717
76389
76625
76889
77563
77801
78063
78727
78976
79241
79489
79742
79999
80693
80934
81194
81447
81707
81973
82230
82498
82757
83020
83284
83551
83813
84081
84345
84603
85178
85428
85699
85963
86226
87237
87711
87955
88224
88487
88748
88999
89261
89529
89792
90515
90768
91035
91732
91983
92610
92855
93125
93385
93648
94263
94515
94790
95484
95727
95991
96256
96525
96788
97502
97751
98409
98654
98923
99182
99450
100074
100321
100583
101263
101507
101769
102025
102984
103388
103636
103902
104594
104831
105096
105815
106335
106582
106842
107103
107370
107633
107896
108161
108842
109354
109596
109862
110123
110388
111071
111313
111578
111840
112108
112376
113375
113878
114122
114726
114963
115227
115488
115747
116000
116259
116519
116789
117457
117699
118332
118581
118850
119503
119746
120015
120268
120533
120792
121456
121703
121971
122230
122497
123092
123333
123592
123847
124106
124683
124925
125191
125445
125706
126413
126662
126927
127626
128549
129050
129295
129568
129831
130098
130353
130616
130881
131875
132338
132585
132851
133110
133369
133969
134217
134490
135169
135413
135682
135951
136210
136468
136726
137699
138179
138421
138687
138952
139216
139477
139731
139875
140311
140557
140824
141095
141361
141622
141887
142158
143182
143591
143842
144107
144367
145059
145310
145580
146232
146473
146736
147004
147278
147540
147805
148063
148331
148602
148866
149556
149802
150068
150784
151029
151294
151564
151833
152097
153029
153473
153722
153983
154653
154907
155175
155436
155697
156364
156613
156884
157546
157789
158057
158318
158580
158839
159100
159632
159884
160156
160419
160680
160945
161692
161931
162197
162461
162726
163357
163607
163869
164134
164408
164672
164939
165583
165828
166103
166370
167347
167828
168079
168341
169002
169255
169532
170193
170442
170713
170973
171590
171833
172097
172360
173083
173327
173595
173865
174131
174392
175094
175329
175598
175861
176120
176384
176641
177302
177545
177797
178448
178695
178963
179217
179474
179726
179987
180253
180514
181220
181468
181727
181987
182259
182518
182779
183040
183634
183885
184150
184410
184677
185326
185571
185843
186551
186797
187433
187685
187949
188212
188479
188740
189003
189550
189801
190074
190752
190998
191613
191862
192129
192381
192643
192911
193170
193705
193946
194211
194874
195122
195391
196093
196344
196609
196870
197133
197772
198030
198297
198561
198827
199489
199741
200006
200266
200808
201052
201320
201584
201843
202108
202878
203124
203394
203664
203932
204198
204906
205150
205424
206132
206383
206650
206912
207178
207851
208100
208371
208639
209199
209439
209709
209975
210665
210912
211184
211441
211708
211979
212247
212517
212788
213060
213330
214057
214308
214579
214847
215129
215791
216050
216331
216598
217164
217412
217684
217954
218227
218783
219027
219303
219573
219847
220528
220783
221059
221331
221901
222147
222421
222695
222965
223234
223512
224262
224522
224799
225485
225737
226006
226697
226941
227203
227886
228132
228398
228657
228929
230038
230540
230801
231078
231349
231614
231885
232159
232432
233542
234031
234286
234558
235243
235491
235766
236038
236302
236936
237196
237473
237742
238278
238528
238803
239075
239344
239994
240250
240527
240791
241055
241694
241953
242231
242501
242771
243037
243308
243586
244259
244507
244781
245041
245310
245573
245834
246095
246362
246629
246899
247171
247423
247683
247946
248206
248466
248730
248984
249239
249499
249773
250044
250310
250570
250833
251100
251363
251631
251900
252169
252437
252706
252982
253256
253526
253794
254385
254632
255201
255448
255715
255979
256253
256515
256783
257420
257658
257932
258200
258463
258732
258994
259265
259541
259813
260083
260350
260624
261271
261515
261779
262420
262675
262941
263203
263501
263862
264102
264369
264635
264897
265163
265428
266079
266327
266595
267216
267466
268105
268353
268624
269282
269525
269787
270452
270698
270971
271228
271488
272198
272441
272704
272964
273220
273481
273747
274018
274279
274964
275217
275487
276143
276395
276660
276927
277700
277944
278214
278866
279104
279372
280030
280279
280548
281225
281475
281747
282012
282696
282938
283211
283869
284110
284372
285052
285296
285563
286230
286478
286748
287006
287263
287521
287787
288055
288323
288583
288849
289121
289387
289656
289931
290613
290867
291145
291411
291678
292350
292600
292874
293604
293850
294127
294840
295090
295361
296051
296298
296565
297242
297499
297768
298027
298839
299087
299361
300040
300285
300559
301233
301480
301745
302002
302652
302899
303167
303839
304080
304346
305052
305297
305563
305827
306089
306747
306996
307267
307530
307793
308060
308320
308590
309091
309334
309600
310276
310528
311193
311441
311714
312410
312656
312923
313192
313455
313719
313975
314706
315685
316083
316342
316550
316852
317106
317366
318061
318308
318571
318829
319723
320210
320458
320726
320983
321250
321520
321783
322048
322309
322579
323717
324161
324417
324690
324955
325218
325482
325752
326378
326619
326888
327583
327840
328109
328374
329342
329861
330109
330377
330642
330906
331171
331433
332110
332361
332629
333320
333563
333834
334104
334364
334630
335292
335547
335820
336081
336344
336616
336883
337469
337715
337982
338249
339213
339629
339881
340150
340847
341091
341358
341630
341902
342169
342433
342697
342969
344481
344939
345187
345454
345717
345981
346248
346519
346791
347904
348356
348607
348869
349574
349824
350097
350361
350627
350899
351173
351444
351713
352498
353975
354423
354675
354939
355197
355465
355729
355995
356264
356532
356798
357059
358240
358689
358937
359208
359864
360106
360373
360641
360905
361166
361426
362060
362310
362580
362848
363118
363879
364406
364648
364919
365182
365447
365716
365983
367023
367434
367688
367957
368227
368491
368759
369033
369297
370162
371135
371594
371849
372124
372385
372651
372913
373182
373717
373960
374228
374877
375131
375403
375664
376346
376600
376873
377136
377401
377671
377934
378204
378479
380594
381025
381283
381558
381822
382088
382348
382619
382895
383161
383426
383695
383964
384958
385496
385751
386027
386290
386559
386818
387079
387346
387619
388336
388850
389103
389373
389641
390343
390589
390860
391544
391794
392065
392338
392604
392869
393135
394055
395011
395429
395682
395949
396207
396470
398056
398494
398759
399026
399290
399555
399820
400079
400352
400620
400887
401678
402682
403122
403371
403640
403904
404164
404421
404687
404956
405222
405900
406148
406410
406675
406948
407210
408463
408953
409195
409459
409723
409985
410246
410510
410768
411030
411298
411562
411830
412810
413535
413784
414049
414317
414587
414854
415116
415383
416129
417574
418008
418254
418523
418789
419053
419323
419596
419863
420135
420404
420679
420955
421951
422392
422651
422924
423187
423452
423723
424002
424274
424544
425614
426050
426303
426567
426835
427112
427377
427645
428803
429258
429510
429771
430042
430318
430585
430852
431122
431391
431659
432786
433365
433617
433895
434153
434421
434692
434959
435231
435510
435779
436857
437398
437647
437920
438191
438459
438726
438996
439259
439530
439812
440081
440715
440972
441237
441910
442160
442425
442691
442967
443234
443504
443776
444531
446023
446328
446511
446673
446880
447108
447372
447597
447829
448076
448846
449254
449504
449776
450037
450301
452321
452793
453042
453304
453571
453828
454096
454368
454629
454890
455152
455420
456354
456791
457034
457301
457562
457820
458083
458346
458618
458889
459159
459423
460542
461365
462301
463205
463735
463978
464241
464490
464748
465009
465269
465529
465789
467366
467782
468036
468305
468566
468817
469075
469335
469588
469851
470116
470375
471074
471621
471869
472132
472395
472660
472928
473192
474683
475085
475331
475594
475851
476116
476376
476637
476898
477153
477417
477688
477948
478216
478478
480078
480480
480733
481005
481268
481525
481782
482046
482303
482565
483275
483805
484057
484702
484956
485228
485907
486151
486420
486678
486942
487217
487480
487746
488511
490007
490453
490698
490957
491213
491478
491738
492003
492275
492538
492802
493855
494764
495662
496165
496417
496687
496947
497206
497468
497729
497986
498254
498518
498782
499474
500399
500923
501165
501430
501700
501960
502218
502475
502741
503008
503269
503531
503790
504055
504314
504580
504850
505711
507148
507561
507813
508080
508337
508597
508859
509122
509385
509651
509911
510175
510445
512492
512916
513163
513424
513681
513943
514204
514468
514734
514992
516045
516883
517808
518714
519614
520120
520367
520630
520891
521151
521404
521665
521927
522182
522440
522695
522947
523647
524154
524399
524663
524925
525193
525452
525710
525971
526237
526497
526765
527037
527296
528060
528579
528818
529083
529343
529599
529863
530129
530387
530647
530908
531176
531447
531715
532340
532591
532866
533133
533407
534954
535399
535654
535919
536190
536464
536728
536990
537253
537529
537803
538069
539172
539603
539850
540121
540385
540656
540931
541193
542177
542750
542992
543256
543511
543776
544044
544307
544569
544840
545113
545850
546836
547323
547573
547835
548100
548369
548638
548907
549177
549446
549709
549980
550256
550524
550797
551943
552401
552652
552918
553184
553458
553721
553982
554244
554512
554774
555050
556003
556534
556790
557064
557326
557593
557865
558136
558411
558682
558949
559214
559484
559759
560858
561304
561559
561832
562103
562369
562641
562919
563185
563458
563730
564003
564271
564968
565474
565723
566004
566275
566551
566819
567089
567363
567637
567920
568199
568476
568750
569035
569923
570473
570731
571009
571285
571559
571827
572103
573381
573985
574238
574513
574783
575050
575324
575605
575875
576144
576416
577528
577975
578228
578508
578786
579058
579331
579600
579877
580146
580426
580706
580976
581945
582336
582586
582856
583126
583397
583668
583942
584644
585649
586064
586316
586588
586851
587115
587377
587637
588440
588940
589189
589462
589733
590007
590273
590544
590812
591089
591370
591641
592520
593066
593324
593596
593862
594132
594410
594681
594952
595219
595485
595758
596034
597196
598164
598701
598947
599220
599489
599753
600021
600279
600550
600826
601093
601356
601618
601890
602154
603036
603521
603773
604045
604310
604571
604836
605106
605780
606710
607162
607411
607672
607932
608195
608453
608720
608983
609245
609509
609767
610037
610675
610922
611200
611476
611750
613353
613780
614037
614333
614617
615344
616247
617116
617961
618799
619634
619881
620135
620381
620636
620894
621144
621407
621670
621922
622182
622439
622709
622978
623243
623886
624381
624629
624903
625158
625416
625680
625953
626215
626480
626748
627013
627278
627544
627812
628080
628346
629048
629972
630474
630723
630989
631248
631508
631766
632026
632297
632569
632838
633563
634617
635053
635309
635585
635850
636112
636375
636643
636914
637183
637453
637724
637991
638939
639444
639701
639972
640241
640514
640781
641049
641315
641588
641867
642139
643260
643833
644084
644349
644620
644895
645168
645442
645708
645974
646242
646517
647159
647409
647679
647954
648229
648843
649096
649366
