318
502
747
964
1097
1381
1566
1817
2035
2164
2447
2669
2884
3016
3305
3519
3727
3942
4158
4374
4511
4794
4955
5216
5438
5580
5758
6042
6251
6463
6678
6890
7099
7309
7473
7708
7925
8061
8344
8555
8765
8906
9188
9398
9603
9812
9981
10221
10343
10646
10820
11055
11267
11403
11690
11874
12105
12313
12452
12733
12922
13153
13361
13563
13733
13978
14185
14321
14589
14783
14996
15203
15410
15605
15704
16021
16169
16440
16645
16850
17050
17256
17388
17663
17873
18076
18209
18477
18684
18894
19096
19301
19447
19704
19908
20116
20294
20523
20731
20859
21138
21349
21553
21759
21962
22169
22304
22576
22763
22989
23196
23320
23600
23747
24012
24216
24423
24629
24830
24996
25245
25453
25585
25854
26040
26278
26488
26621
26894
27100
27307
27452
27726
27932
28132
28298
28541
28755
28888
29154
29320
29731
29942
30150
30355
30558
30759
30965
31176
31378
31581
31783
31911
32183
32387
32586
32788
32991
33122
33386
33594
33795
33938
34193
34391
34595
34799
35002
35148
35404
35603
35803
36006
36209
36410
36605
36742
37001
37201
37400
37603
37798
37996
38194
38396
38599
38801
39001
39202
39404
39602
39808
39959
40212
40418
40618
40827
41035
41238
41441
41637
41853
42055
42267
42482
42606
42891
43080
43313
43526
43658
43929
44116
44348
44557
44691
44981
45113
45391
45524
45821
45987
46243
46451
46582
46856
47010
47259
47476
47617
47889
48085
48312
48453
48724
48865
49133
49342
49554
49717
49967
50181
50307
50592
50728
51018
51163
51434
51602
51858
52077
52215
52497
52635
52918
53064
53347
53521
53638
53966
54119
54392
54610
54748
55032
55170
55456
55679
55811
56097
56240
56524
56669
56923
57145
57283
57559
57747
57987
58207
58335
58623
58764
59053
59194
59479
59650
59906
60119
60255
60551
60767
60876
61187
61401
61609
61743
62027
62237
62375
62645
62864
63009
63288
63422
63698
63915
64119
64330
64543
64753
64887
65157
65345
65575
65784
65984
66149
66394
66596
66805
66936
67138
67380
67588
67798
68008
68217
68349
68620
68785
69034
69249
69385
69663
69804
70077
70291
70415
70708
70889
71120
71332
71538
71712
71953
72158
72363
72539
72782
72993
73126
73407
73549
73804
74019
74231
74447
74655
74863
75074
75289
75497
75713
75808
76117
76290
76540
76758
76895
77180
77310
77604
77747
78035
78245
78454
78670
78879
79091
79308
79513
79700
79837
80142
80358
80543
80768
80981
81124
81393
81610
81821
82033
82218
82364
82661
82872
83081
83288
83499
83705
83915
84127
84286
84521
84743
84954
85165
85374
85496
85777
85989
86195
86409
86623
86827
87037
87164
87453
87629
87877
88086
88214
88496
88628
88917
89130
89340
89547
89761
89978
90186
90397
90609
90822
91026
91241
91458
91664
91873
92004
92289
92491
92714
92919
93128
93308
93407
93748
93917
94178
94388
94597
94815
95032
95166
95450
95670
95784
96089
96307
96522
96736
96945
97076
97372
97588
97796
98009
98224
98355
98644
98862
99076
99287
99499
99713
99854
100137
100347
100558
100696
100984
101153
101410
101624
101834
102040
102266
102477
102689
102906
103034
103324
103545
103770
103901
104193
104354
104628
104847
105066
105275
105487
105622
105907
106124
106336
106547
106759
106890
107184
107397
107610
107740
108031
108244
108461
108602
108884
109100
109311
109451
109746
109903
110172
110306
110599
110773
111479
111691
111913
112053
112349
112563
112779
112916
113208
113368
113649
113781
114071
114240
114507
114723
114935
115148
115366
115497
115791
116012
116228
116360
116653
116878
117093
117228
117508
117719
117932
118067
118360
118574
118789
118920
119213
119437
119655
119790
120077
120296
120513
120648
120947
121166
121377
121561
121812
122028
122242
122420
122665
122823
122984
123309
123528
123740
123954
124176
124314
124606
124821
125042
125178
125474
125699
125921
126053
126349
126568
126789
127007
127218
127352
127641
127859
128074
128213
128504
128718
128932
129073
129367
129587
129800
129932
130218
130433
130656
130786
131074
131286
131503
131646
131924
132131
132340
132474
132759
132976
133192
133324
133608
133824
134046
134184
134469
134681
134896
135034
135323
135544
135758
135894
136177
136400
136620
136751
137038
137253
137472
137603
137896
138118
138335
138464
138759
138986
139202
139335
139625
139842
140056
140192
140482
140697
140911
141039
141335
141555
141772
141899
142183
142399
142614
142746
143040
143257
143471
143607
143908
144129
144341
144555
144771
144941
145200
145423
145636
145851
145985
146279
146486
146616
146934
147080
147370
147571
147816
148035
148172
148464
148662
148906
149125
149337
149528
149764
149983
150173
150321
150627
150773
151062
151288
151504
151705
151937
152156
152366
152583
152728
153002
153213
153426
153628
153760
154062
154203
154487
154697
154908
155127
155337
155548
155756
155972
156188
156397
156600
156807
157021
157228
157435
157644
157849
158027
158253
158470
158603
158883
159086
159296
159507
159722
159855
160140
160355
160558
160770
160986
161116
161399
161599
161816
162024
162237
162429
162650
162874
163084
163303
163519
163740
163872
164157
164342
164594
164816
165033
165247
165459
165593
165893
166110
166328
166459
166754
166973
167200
167335
167636
167857
168084
168223
168528
168747
168964
169101
169387
169610
169832
169967
170250
170463
170681
170819
171107
171319
171532
171672
171951
172167
172388
172519
172805
173022
173244
173381
173665
173878
174091
174228
174511
174729
174939
175072
175354
175570
175791
175923
176205
176419
176636
176772
177059
177280
177629
177914
178054
178348
178565
178774
178986
179197
179336
179621
179831
180045
180178
180465
180686
180900
181038
181315
181534
181747
181884
182174
182387
182596
182739
183026
183237
183449
183582
183865
184074
184291
184442
184558
184901
185118
185339
185482
185767
185981
186196
186337
186618
186838
187056
187193
187479
187699
187920
188054
188340
188558
188776
188908
189197
189421
189633
189846
190059
190281
190418
190705
190916
191129
191270
191557
191775
191988
192129
192408
192628
192849
192982
193270
193462
193703
193921
194138
194318
194567
194779
194995
195181
195397
195641
195854
196067
196275
196493
196631
196915
197127
197340
197556
197774
197911
198188
198400
198615
198746
199038
199259
199469
199602
199889
200112
200324
200502
200744
200949
201158
201337
201579
201789
201997
202173
202413
202633
202844
203024
203233
203476
203687
203900
204118
204330
204469
204746
204968
205085
205396
205610
205824
205966
206252
206474
206693
206826
207120
207302
207567
207789
208000
208170
208431
208650
208868
209042
209300
209513
209730
209913
210163
210381
210592
210773
211023
211248
211468
211648
211864
211979
212329
212498
212768
212987
213204
213416
213633
213767
214053
214270
214481
214702
214920
215057
215338
215554
215772
215905
216203
216423
216640
216770
217065
217291
217505
217640
217920
218139
218347
218486
218771
218986
219195
219374
219624
219842
219977
220263
220482
220697
220914
221130
221266
221556
221770
221985
222202
222414
222618
222755
222928
223250
223425
223681
223897
224104
224279
224395
224740
224959
225171
225380
225592
225735
226017
226217
226340
226648
226787
227077
227221
227497
227699
227927
228060
228350
228570
228785
228917
229207
229417
229639
229851
230061
230271
230478
230690
230905
231078
231239
231525
231672
231960
232130
232381
232598
232735
233026
233162
233464
233681
233891
234106
234330
234489
234753
234967
235179
235344
235601
235822
236033
236207
236456
236675
236893
237071
237318
237534
237672
237961
238182
238395
238612
238817
239027
239244
239454
239665
239870
240076
240235
240494
240710
240841
241125
241300
241552
241772
241904
242189
242404
242615
242824
243037
243251
243459
243630
243872
244090
244218
244505
244636
244920
245061
245340
245509
245762
245974
246102
246390
246536
246816
246955
247231
247404
247647
247861
247997
248279
248421
248669
248803
249091
249276
249504
249716
249851
250134
250321
250564
250775
250982
251150
251412
251630
251844
252055
252266
252477
252616
252900
253063
253322
253537
253750
253937
254077
254378
254536
254800
255017
255155
255440
255653
255863
256075
256294
256429
256712
256883
257124
257340
257556
257737
257982
258201
258412
258594
258846
259063
259274
259452
259700
259915
260129
260306
260547
260755
260889
261179
261388
261592
261799
262009
262217
262362
262641
262812
263058
263269
263403
263697
263911
264115
264256
264537
264750
264963
265141
265391
265604
265731
266034
266252
266469
266599
266896
267111
267331
267471
267758
267976
268191
268333
268628
268849
269060
269198
269483
269701
269917
270057
270336
270546
270761
270900
271182
271397
271608
271791
272032
272254
272391
272682
272898
273111
273329
273543
273759
273966
274131
274385
274598
274811
274982
275235
275445
275576
275879
276092
276305
276517
276731
276942
277158
277342
277582
277794
277921
278221
278406
278643
278848
278981
279262
279474
279683
279897
280107
280312
280526
280744
280957
281166
281373
281583
281790
282001
282211
282417
282622
282825
283031
283243
283525
283857
284011
284276
284489
284705
284880
285063
285326
285543
285755
285972
286184
286312
286594
286803
287010
287164
287418
287623
287834
288049
288257
288389
288671
288881
289087
289299
289513
289717
289922
290126
290335
290549
290681
290954
291161
291367
291568
291773
291986
292189
292321
292596
292782
293021
293203
293432
293639
293854
294041
294274
294489
294617
294900
295112
295329
295537
295747
295949
296159
296343
296577
296793
296925
297209
297420
297633
297850
298065
298197
298481
298696
298911
299050
299338
299546
299757
299895
300178
300313
300601
300761
301019
301236
301370
301545
301872
302089
302297
302432
302724
302938
303146
303355
303570
303698
303986
304203
304408
304612
304820
305032
305233
305457
305580
305861
306031
306278
306421
306702
306858
307113
307325
307464
307749
307884
308164
308311
308579
308793
309005
309181
309425
309628
309767
310060
310198
310476
310615
310894
311065
311317
311534
311666
311949
312131
312376
312593
312724
313008
313146
313431
313573
313860
314077
314208
314492
314683
314925
315141
315277
315562
315699
315986
316131
316420
316555
316839
317053
317270
317448
317695
317907
318116
318293
318536
318749
318883
319162
319294
319583
319807
320015
320227
320439
320576
320855
321071
321289
321424
321700
321913
322132
322304
322548
322757
322966
323140
323308
323601
323776
324025
324233
324442
324623
324862
325069
325274
325446
325681
325890
326025
326298
326481
326712
326923
327060
327338
327744
327959
328166
328379
328588
328793
328998
329201
329415
329620
329830
330030
330230
330435
330639
330847
330985
331250
331454
331660
331798
332071
332205
332477
332684
332888
333028
333302
333442
333707
333909
334114
334324
334528
334659
334927
335060
335330
335536
335745
335950
336154
336351
336560
336774
336978
337184
337386
337593
337733
337999
338205
338411
338549
338812
339018
339230
339361
339636
339837
340043
340244
340452
340656
340863
341065
341272
341482
341615
341891
342095
342295
342496
342700
342906
343107
343312
343515
343713
343916
344121
344323
344526
344724
344924
345130
345262
345536
345743
345946
346146
346349
346557
346759
346962
347164
347367
347504
347771
347906
348183
348328
348423
348776
348994
349199
349405
349611
349817
350023
350234
350443
350650
350856
351060
351268
351484
351693
351821
352094
352262
352512
352725
352941
353148
353284
353552
353749
353982
354196
354324
354600
354780
354882
355221
355437
355650
355779
356059
356242
356486
356701
356829
357110
357290
357537
357756
357884
358171
358305
358591
358811
359022
359230
359439
359578
359858
359996
360288
360442
360707
360922
361141
361300
361559
361770
361978
362141
362396
362617
362746
363032
363165
363454
363672
363882
364011
364292
364509
364715
364853
365138
365347
365554
365688
365975
366186
366397
366527
366807
367019
367232
367444
367655
367793
368066
368279
368494
368705
368912
369047
369323
369477
369736
369947
370154
370361
370570
370706
370991
371203
371406
371556
371795
372007
372144
372424
372579
372839
373051
373262
373423
373676
373881
374086
374251
374498
374708
374916
375082
375321
375533
375670
375946
376158
376361
376567
376777
376908
377190
377360
377606
377811
377944
378223
378402
378634
378841
378970
379246
379425
379658
379867
379998
380272
380411
380697
380905
381110
381319
381528
381664
381938
382153
382359
382515
382766
382980
383193
383400
383605
383737
383985
384199
384410
384626
384835
384975
385247
385410
385676
385891
386097
386301
386513
386722
386933
387142
387281
387529
387710
387960
388171
388383
388551
388660
388999
389176
389434
389643
389855
390066
390282
390423
390700
390906
391116
391263
391499
391717
391934
392088
392347
392558
392779
392948
393202
393415
393625
393793
394042
394261
394397
394642
394850
395062
395279
395483
395691
395823
396099
396309
396519
396664
396936
397158
397254
397568
397785
397999
398135
398408
398548
398831
398992
399252
399465
399670
399878
400095
400227
400510
400720
400926
401133
401347
401561
401765
401975
402178
402316
402595
402805
403009
403213
403423
403552
403828
404041
404243
404447
404651
404864
405075
405282
405483
405623
405897
406070
406313
406529
406734
406938
407099
407269
407570
407749
407984
408157
408400
408613
408745
409031
409208
409446
409660
409875
410084
410293
410504
410635
410915
411075
411338
411552
411762
411967
412178
412320
412597
412804
413010
413223
413432
413571
413753
414055
414215
414473
414689
414901
415110
415315
415522
415662
415941
416113
416363
416572
416778
416945
417059
417395
417565
417815
418027
418157
418438
418621
418861
419072
419202
419486
419672
419825
420113
420325
420537
420725
420955
421175
421301
421578
421756
422008
422221
422355
422631
422810
423047
423217
423470
423681
423817
424089
424304
424524
424661
424935
425146
425362
425495
425776
425996
426208
426343
426620
426842
427056
427193
427474
427686
427901
428040
428329
428539
428753
428890
429175
429394
429606
429738
430011
430190
430434
430650
430859
431017
431270
431481
431696
431900
432113
432318
432524
432728
432937
433149
433353
433561
433762
433971
434182
434385
434590
434794
435003
435207
435345
435624
435833
436046
436177
436466
436629
436899
437108
437317
437535
437699
437956
438171
438381
438532
438791
439013
439224
439438
439644
439775
440061
440283
440494
440629
440909
441118
441332
441474
441755
441933
442174
442390
442597
442812
442950
443231
443445
443659
443796
444081
444298
444510
444642
444929
445103
445366
445582
445794
445947
446139
446438
446593
446720
447054
447271
447484
447699
447918
448049
448327
448543
448766
448902
449189
449407
449623
449760
450046
450269
450485
450620
450904
451108
451334
451544
451748
451956
452172
452382
452595
452737
453017
453229
453446
453586
453879
454097
454311
454439
454734
454956
455177
455390
455604
455818
456040
456174
456465
456679
456894
457029
457326
457549
457767
457902
458197
458425
458647
458782
459073
459289
459508
459641
459941
460158
460377
460507
460804
461029
461249
461382
461672
461888
462108
462241
462540
462758
462969
463109
463404
463616
463824
463960
464246
464460
464674
464815
465099
465313
465526
465669
465956
466171
466384
466517
466807
467026
467248
467379
467665
467879
468096
468241
468523
468733
468944
469088
469366
469584
469796
469936
470216
470433
470651
470788
471075
471289
471502
471636
471920
472142
472350
472491
472768
472988
473201
473346
473620
473833
474043
474232
474474
474687
474897
475081
475221
475544
475680
475962
476177
476390
476568
476810
477029
477237
477417
477544
477868
478035
478292
478495
478702
478910
479118
479257
479536
479749
479952
480148
480281
480582
480731
480991
481177
481399
481607
481809
481978
482216
482414
482617
482808
482936
483227
483428
483627
483828
484016
484142
484444
484650
484824
485050
485261
485396
485588
485723
486054
486234
486371
486674
486816
487191
487492
487661
487914
488122
488325
488532
488661
488937
489146
489318
489557
489764
489973
490171
490389
490590
490730
490998
491202
491411
491554
491823
492028
492237
492376
492594
492709
493049
493263
493476
493608
493891
494067
494315
494521
494728
494944
495153
495361
495566
495776
495911
496190
496410
496619
496760
497036
497254
497469
497607
497882
498093
498305
498443
498726
498940
499149
499282
499560
499779
499986
500127
500403
500616
500826
500969
501258
501470
501681
501819
502108
502328
502541
502676
502955
503169
503384
503519
503804
504016
504224
504362
504651
504863
505074
505211
505492
505703
505917
506061
506343
506555
506765
506910
507198
507414
507619
507790
508034
508244
508453
508664
508876
509082
509294
509514
509723
509934
510142
510356
510566
510780
510921
511200
511367
511628
511768
512054
512240
512484
512701
512916
513093
513352
513571
513785
513956
514211
514433
514647
514822
515065
515280
515490
515670
515923
516135
516344
516518
516664
516991
517134
517420
517641
517859
517998
518302
518494
518739
518958
519183
519402
519618
519828
520045
520256
520475
520613
520903
521117
521325
521464
521757
521952
522181
522394
522610
522775
523036
523250
523462
523627
523883
524103
524314
524492
524630
524944
525079
525368
525505
525793
525935
526114
526437
526658
526878
527008
527301
527490
527730
527946
528156
528327
528577
528795
529010
529186
529427
529642
529854
530030
530278
530495
530706
530883
531026
531341
531484
531976
532193
532322
532606
532794
533034
533244
533452
533621
533878
534094
534222
534507
534724
534944
535075
535365
535581
535795
535933
536223
536440
536652
536791
537074
537290
537507
537645
537930
538144
538355
538495
538783
539000
539213
539342
539624
539844
540062
540200
540479
540691
540904
541048
541327
541540
541753
541889
542168
542380
542598
542733
543011
543225
543445
543583
543861
544076
544288
544428
544707
544927
545139
545277
545553
545770
545993
546124
546405
546617
546834
546965
547252
547474
547679
547813
548087
548308
548521
548662
548936
549149
549362
549503
549781
549926
550204
550366
550620
550835
551042
551248
551453
551664
551871
552086
552228
552505
552705
552833
553150
553370
553591
553723
554012
554227
554449
554587
554877
555094
555306
555446
555737
555952
556163
556298
556585
556804
557027
557166
557457
557673
557897
558038
558329
558544
558760
558897
559182
559400
559617
559748
560031
560248
560471
560603
560894
561110
561330
561462
561752
561973
562189
562324
562611
562835
563053
563192
563473
563689
563903
564040
564339
564552
564765
564896
565184
565400
565618
565748
566035
566253
566473
566610
566900
567117
567330
567466
567762
567976
568184
568321
568595
568803
569021
569163
569439
569646
569856
570050
570285
570502
570629
570919
571130
571345
571479
571765
571978
572184
572316
572607
572821
573026
573160
573442
573648
573864
574000
574286
574495
574709
574849
575139
575354
575564
575696
575979
576196
576411
576545
576832
577043
577252
577396
577677
577887
578098
578232
578514
578731
578947
579079
579358
579570
579782
579922
580203
580412
580621
580759
581034
581248
581465
581596
581874
582088
582308
582442
582723
582936
583150
583285
583569
583788
583999
584137
584414
584633
584851
584990
585269
585485
585700
585834
586123
586342
586558
586692
586981
587206
587419
587555
587833
588054
588268
588405
588698
588916
589128
589263
589555
589771
589987
590116
590404
590620
590836
590977
591260
591478
591694
591833
592123
592343
592557
592688
592977
593199
593419
593554
593834
594050
594270
594410
594577
594898
595078
595325
595491
595750
595967
596179
596388
596604
596826
597038
597176
597459
597663
597769
598094
598320
598533
598668
598950
599172
599387
599525
599803
600018
600234
600370
600661
600876
601095
601226
601512
601733
601950
602080
602367
602585
602801
602933
603221
603439
603653
603785
604087
604305
604523
604658
604952
605168
605391
605584
605825
605965
606254
606437
606694
606838
607121
607299
607549
607772
607996
608210
608427
608557
608742
609079
609302
609521
609654
609952
610127
610396
610616
610832
611005
611264
611485
611669
611910
612131
612270
612562
612728
612999
613224
613354
613652
613877
614102
614233
614523
614742
614961
615099
615395
615574
615816
616033
616250
616466
616679
616813
617100
617316
617536
617676
617968
618186
618405
618545
618833
619053
619266
619442
619686
619904
620122
620297
620542
620755
620972
621166
621286
621609
621756
622037
622261
622481
622666
622910
623122
623343
623538
623660
623979
624128
624409
624629
624846
625030
625273
625484
625703
625899
626022
626346
626491
626778
626994
627210
627394
627641
627855
628070
628261
628386
628706
628858
629130
629347
629566
629701
629993
630133
630426
630604
630872
631094
631308
631497
631618
631789
632135
632314
632569
632784
633001
633216
633432
633561
633849
634011
634274
634490
634708
634885
635129
635346
635568
635749
635988
636195
636412
636598
636718
637043
637204
637464
637642
637895
638113
638252
638531
638673
638952
639173
639311
639602
639806
640020
640231
640451
640665
640799
641076
641288
641495
641703
641914
642118
642323
642500
642739
642949
643158
643327
643457
643775
643940
644199
644410
644537
644816
644953
645246
645379
645662
645794
646077
646244
646503
646725
646938
647152
647367
647503
647805
648023
648242
648378
648651
648870
649090
649230
649515
649727
649964
