42
320
508
750
966
1116
1384
1572
1821
2038
2182
2449
2672
2885
3037
3308
3522
3730
3944
4160
4376
4531
4797
4963
5218
5440
5579
5775
6044
6254
6465
6681
6892
7101
7311
7476
7710
7926
8080
8346
8557
8766
8929
9191
9400
9604
9813
9972
10229
10357
10648
10826
11057
11268
11424
11693
11881
12107
12314
12470
12735
12930
13155
13363
13564
13738
13978
14185
14340
14591
14788
14999
15205
15411
15726
16022
16179
16441
16647
16852
17052
17255
17406
17665
17875
18075
18230
18480
18685
18896
19099
19304
19469
19707
19911
20119
20309
20526
20734
20882
21141
21353
21558
21764
21966
22172
22329
22580
22776
22993
23199
23341
23604
23767
24016
24221
24426
24633
24835
25013
25248
25453
25606
25856
26049
26281
26490
26641
26897
27107
27309
27474
27729
27935
28135
28305
28545
28756
28910
29158
29313
29732
29945
30149
30358
30559
30762
30967
31181
31381
31583
31784
31933
32186
32389
32587
32792
32994
33389
33598
33797
33961
34195
34394
34598
34801
35003
35172
35406
35605
35804
36008
36211
36411
36604
36765
37003
37202
37402
37605
37799
37998
38196
38397
38600
38802
39003
39203
39405
39604
39809
39981
40214
40420
40619
40829
41036
41239
41443
41646
41855
42056
42269
42481
42624
42892
43094
43314
43525
43677
43931
44126
44350
44557
44713
44981
45130
45391
45536
45821
45995
46244
46451
46603
46858
47004
47259
47476
47639
47890
48100
48312
48474
48725
48886
49135
49343
49555
49724
49968
50180
50324
50592
50745
51019
51180
51436
51609
51859
52077
52237
52497
52651
52919
53080
53349
53525
53654
53967
54131
54394
54612
54764
55033
55187
55459
55680
55831
56098
56257
56525
56675
56926
57147
57304
57562
57755
57990
58210
58355
58624
58779
59054
59212
59481
59659
59910
60121
60275
60554
60777
60898
61189
61403
61611
61764
62030
62240
62395
62648
62865
63029
63287
63437
63701
63918
64122
64333
64545
64752
64905
65159
65355
65578
65787
65985
66157
66396
66598
66805
66956
67140
67382
67590
67799
68009
68217
68366
68621
68806
69036
69250
69405
69664
69819
70078
70292
70433
70710
70897
71122
71333
71539
71724
71954
72159
72365
72547
72784
72995
73148
73406
73805
74020
74231
74447
74656
74863
75074
75290
75497
75705
76118
76297
76543
76759
76915
77179
77325
77604
77764
78036
78247
78455
78671
78881
79092
79309
79515
79711
79848
80144
80360
80562
80775
80981
81144
81395
81612
81822
82034
82232
82381
82662
82874
83083
83290
83500
83707
83916
84129
84291
84530
84746
84956
85168
85374
85509
85779
85992
86197
86411
86625
86829
87037
87183
87455
87637
87879
88086
88232
88495
88646
88920
89132
89342
89549
89763
89980
90187
90400
90611
90823
91028
91243
91459
91665
91873
92024
92291
92499
92716
92922
93130
93308
93427
93750
93925
94180
94391
94600
94817
95033
95186
95452
95670
95795
96091
96310
96524
96738
96945
97096
97374
97590
97798
98011
98224
98376
98647
98865
99077
99289
99500
99713
99875
100139
100349
100559
100714
100985
101161
101413
101626
101836
102048
102268
102479
102691
102905
103053
103325
103547
103770
103920
104195
104363
104631
104852
105067
105276
105485
105640
105908
106126
106338
106550
106758
106911
107188
107400
107610
107763
108033
108246
108461
108623
108886
109102
109312
109472
109747
109912
110171
110322
110601
110778
111043
111263
111481
111691
111912
112074
112351
112566
112780
112939
113210
113377
113649
114074
114249
114509
114726
114937
115150
115366
115518
115794
116015
116228
116380
116655
116880
117093
117251
117510
117722
117933
118089
118362
118577
118790
118941
119215
119440
119656
119808
120080
120299
120514
120668
120950
121168
121379
121570
121815
122031
122244
122427
122668
122814
123005
123311
123530
123742
123956
124177
124334
124608
124824
125042
125195
125477
125702
125921
126073
126350
126570
126791
127009
127218
127371
127643
127860
128074
128233
128506
128721
128933
129095
129370
129589
129800
129953
130220
130436
130655
130805
131076
131287
131503
131666
131926
132133
132340
132496
132761
132978
133192
133345
133610
133826
134046
134202
134471
134683
134896
135051
135324
135546
135758
135914
136178
136401
136620
136774
137040
137256
137472
137625
137898
138120
138334
138484
138760
138987
139201
139356
139627
139843
140055
140213
140484
140700
140911
141059
141337
141557
141770
141917
142184
142401
142614
142765
143042
143260
143472
143628
143909
144132
144343
144558
144773
144933
145201
145426
145639
145852
146006
146282
146491
146636
146935
147101
147373
147577
147819
148036
148193
148466
148670
148909
149128
149339
149536
149766
149986
150189
150335
150628
150793
151064
151291
151507
151716
151939
152158
152368
152584
152751
153006
153216
153429
153778
154063
154221
154489
154700
154911
155130
155339
155550
155758
155974
156190
156400
156602
156808
157022
157229
157437
157646
157851
158037
158255
158471
158622
158885
159089
159297
159508
159721
159877
160141
160357
160560
160771
160986
161139
161401
161606
161818
162026
162239
162439
162659
162876
163086
163304
163521
163742
163889
164159
164348
164596
164818
165034
165248
165459
165614
165895
166113
166329
166480
166757
166976
167201
167356
167638
167859
168084
168242
168529
168748
168963
169119
169388
169611
169830
169984
170251
170466
170682
170835
171109
171321
171533
171693
171953
172169
172389
172540
172807
173024
173246
173400
173667
173880
174092
174247
174513
174730
174939
175093
175356
175572
175791
175944
176207
176422
176637
176795
177061
177283
177448
177648
177915
178074
178350
178567
178776
178988
179197
179356
179623
179833
180045
180196
180468
180688
180901
181056
181317
181536
181747
181905
182177
182389
182597
182756
183028
183237
183449
183601
183866
184076
184292
184467
184550
184903
185120
185339
185500
185769
185982
186196
186357
186620
186840
187057
187213
187481
187702
187921
188074
188342
188561
188776
188928
189200
189423
189635
189848
190060
190281
190438
190707
190918
191130
191290
191559
191777
191989
192148
192410
192631
192849
193003
193273
193470
193705
193922
194140
194331
194569
194782
194997
195196
195416
195643
195856
196068
196277
196494
196649
196916
197129
197342
197557
197773
197933
198189
198401
198614
198766
199039
199260
199469
199622
199890
200114
200325
200745
200950
201159
201351
201580
201790
201998
202187
202415
202635
202845
203037
203249
203478
203688
203902
204120
204330
204489
204748
204968
205103
205397
205612
205824
205983
206253
206475
206693
206847
207121
207311
207569
207790
208002
208178
208433
208652
208869
209050
209301
209515
209731
209926
210165
210383
210595
210783
211024
211249
211469
211663
211879
211983
212331
212508
212770
212988
213205
213418
213632
213788
214055
214273
214483
214703
214919
215079
215340
215555
215772
215928
216205
216425
216640
216789
217066
217293
217505
217659
217923
218141
218347
218506
218773
218988
219197
219390
219626
219842
219998
220265
220484
220698
220916
221131
221284
221558
221771
221986
222203
222415
222619
222774
222949
223252
223432
223683
223899
224106
224283
224417
224742
224961
225173
225381
225592
225756
226019
226360
226648
226803
227078
227241
227499
227708
227927
228082
228352
228573
228784
228937
229208
229423
229640
229852
230062
230272
230479
230691
230906
231095
231247
231525
231694
231961
232137
232383
232598
232755
233025
233179
233466
233683
233892
234106
234330
234498
234754
234968
235179
235351
235603
235824
236034
236216
236457
236676
236894
237080
237320
237534
237691
237963
238183
238396
238612
238818
239029
239246
239455
239666
239871
240078
240240
240496
240710
240859
241127
241310
241554
241772
241925
242191
242406
242617
242825
243040
243253
243461
243637
243874
244090
244239
244505
244650
244920
245072
245344
245524
245764
245976
246124
246391
246549
246818
246967
247234
247410
247650
247863
248016
248281
248669
248824
249095
249285
249508
249719
249873
250137
250332
250567
250779
250986
251156
251416
251634
251847
252058
252269
252479
252638
252902
253071
253324
253540
253752
254098
254379
254547
254803
255019
255172
255442
255656
255865
256077
256294
256448
256714
257126
257343
257557
257765
257985
258204
258414
258611
258849
259066
259277
259463
259702
259916
260131
260322
260548
260754
260905
261182
261388
261594
261801
262011
262218
262387
262643
262822
263060
263270
263424
263699
263913
264116
264276
264539
264751
264965
265149
265393
265604
265750
266035
266254
266469
266619
266897
267112
267330
267491
267759
267977
268192
268352
268630
268850
269060
269214
269485
269702
269917
270073
270337
270547
270759
270919
271183
271398
271610
271799
272033
272254
272409
272684
272899
273111
273330
273544
273759
273967
274138
274386
274600
274812
274989
275237
275444
275599
275880
276093
276306
276518
276732
276944
277159
277352
277584
277795
277943
278222
278421
278644
278847
278999
279263
279476
279685
279899
280109
280314
280528
280746
280958
281168
281375
281584
281791
282003
282212
282418
282623
282826
283032
283245
283473
283551
283858
284022
284277
284491
284706
284892
285082
285329
285545
285757
285974
286182
286329
286595
286805
287011
287185
287420
287626
287836
288051
288257
288409
288674
288883
289089
289301
289515
289719
289924
290128
290337
290549
290701
290956
291164
291368
291570
291775
291988
292190
292340
292598
292800
293023
293213
293434
293642
293856
294052
294277
294490
294640
294903
295115
295331
295540
295749
295953
296161
296353
296579
296794
296945
297212
297423
297635
297852
298066
298215
298483
298698
298911
299071
299340
299548
299758
299918
300178
300330
300604
300770
301021
301236
301391
301568
301874
302091
302297
302452
302726
302940
303147
303357
303569
303718
303987
304204
304409
304614
304821
305036
305239
305454
305598
305862
306026
306278
306444
306703
306867
307114
307326
307485
307748
307899
308164
308333
308581
308795
309007
309188
309427
309628
309787
310061
310215
310476
310634
310896
311072
311319
311535
311687
311951
312137
312378
312594
312746
313008
313160
313431
313592
313861
314078
314229
314495
314689
314927
315142
315295
315562
315713
315986
316146
316421
316574
316841
317057
317272
317454
317697
317909
318117
318308
318537
318750
318901
319162
319310
319585
319810
320017
320229
320439
320596
320857
321072
321290
321442
321702
321915
322133
322311
322550
322759
322968
323148
323328
323602
323788
324027
324235
324444
324628
324865
325071
325276
325456
325686
325890
326047
326300
326489
326712
326924
327086
327341
327491
327748
327963
328170
328380
328593
328798
329002
329207
329419
329627
329834
330035
330235
330440
330644
330851
331008
331255
331458
331663
331825
332072
332225
332482
332690
332892
333052
333303
333463
333711
333913
334118
334328
334529
334680
334928
335083
335333
335539
335748
335954
336157
336355
336563
336777
336981
337188
337388
337593
337756
338002
338207
338412
338574
338815
339020
339231
339383
339638
339841
340046
340249
340456
340660
340868
341073
341274
341483
341639
341895
342099
342298
342501
342702
342910
343111
343315
343518
343716
343920
344125
344327
344530
344728
344928
345130
345285
345540
345747
345950
346150
346353
346561
346763
346966
347167
347369
347526
347773
347929
348185
348436
348780
348997
349202
349409
349614
349820
350027
350237
350446
350654
350860
351063
351271
351488
351694
351839
352099
352253
352515
352727
352942
353148
353304
353556
353986
354198
354342
354604
354902
355225
355442
355651
355797
356062
356252
356489
356704
356849
357114
357298
357540
357756
357904
358171
358321
358595
358815
359025
359233
359441
359596
359860
360014
360291
360450
360709
360925
361143
361304
361561
361773
361980
362147
362397
362618
362765
363032
363180
363456
363674
363882
364031
364295
364513
364716
364873
365140
365349
365554
365712
365977
366188
366398
366550
366809
367022
367234
367447
367657
367812
368068
368282
368497
368708
368913
369069
369324
369493
369738
369950
370157
370363
370570
370729
370994
371206
371408
371554
371796
372008
372164
372426
372591
372843
373054
373265
373428
373679
373885
374088
374260
374501
374711
374919
375087
375323
375533
375686
375949
376162
376364
376569
376774
376923
377191
377367
377608
377811
377961
378226
378408
378635
378840
378990
379247
379439
379660
379868
380022
380273
380429
380699
380907
381112
381321
381529
381683
381940
382156
382361
382523
382768
382982
383195
383403
383608
383743
383987
384201
384413
384629
384836
384994
385249
385419
385678
385894
386099
386304
386516
386724
386935
387141
387531
387719
387962
388174
388385
388552
388677
389002
389184
389437
389646
389856
390068
390283
390443
390702
390909
391118
391258
391501
391719
391935
392096
392350
392561
392781
392952
393204
393417
393626
393801
394044
394264
394398
394644
394853
395064
395281
395486
395692
395847
396103
396312
396520
396687
396939
397152
397571
397789
398001
398153
398409
398567
398835
399000
399256
399468
399673
399882
400096
400249
400513
400723
400930
401136
401349
401563
401767
401977
402180
402336
402598
402808
403012
403216
403424
403572
403831
404045
404247
404451
404655
404867
405078
405284
405485
405646
405900
406078
406317
406532
406738
406942
407090
407290
407573
407761
407988
408163
408402
408615
408766
409035
409216
409449
409663
409878
410088
410296
410505
410654
410918
411084
411341
411555
411764
411970
412180
412341
412599
412806
413012
413224
413433
413592
413771
414057
414223
414475
414691
414903
415112
415317
415523
415682
415943
416123
416366
416575
416780
416950
417082
417397
417572
417817
418028
418177
418441
418627
418864
419072
419225
419489
419841
420116
420329
420539
420738
420958
421175
421320
421581
421765
422012
422223
422374
422634
422821
423050
423232
423472
423684
423836
424093
424308
424526
424682
424937
425149
425364
425515
425779
425998
426208
426362
426624
426846
427059
427214
427479
427691
427904
428060
428333
428545
428757
428910
429179
429399
429608
429758
430016
430203
430439
430655
430864
431025
431275
431485
431700
431905
432115
432320
432526
432731
432940
433152
433357
433564
433764
433973
434184
434388
434593
434797
435005
435208
435368
435627
435837
436048
436198
436468
436638
436902
437111
437321
437538
437693
437959
438175
438384
438540
438794
439017
439228
439442
439645
439797
440064
440285
440495
440651
440914
441123
441334
441497
441759
441946
442178
442394
442601
442815
442974
443235
443448
443660
443819
444085
444303
444511
444664
444932
445094
445371
445586
445797
446160
446442
446743
447057
447274
447486
447701
447919
448072
448331
448547
448767
448922
449192
449410
449626
449778
450049
450272
450484
450641
450906
451110
451337
451547
451751
451960
452175
452386
452596
452759
453021
453233
453447
453610
453883
454101
454312
454462
454738
454959
455181
455394
455607
455820
456040
456195
456469
456683
456895
457048
457329
457553
457769
457921
458200
458428
458648
458803
459076
459292
459509
459663
459944
460161
460378
460526
460808
461033
461249
461401
461674
461891
462109
462265
462544
462762
462970
463131
463407
463620
463827
463979
464249
464463
464676
464837
465103
465316
465528
465691
465960
466175
466386
466538
466811
467030
467249
467398
467669
467883
468099
468261
468527
468737
468946
469109
469370
469588
469799
469959
470219
470437
470654
470810
471079
471292
471504
471660
471925
472146
472352
472511
472772
472992
473204
473367
473624
473838
474048
474246
474478
474691
474901
475243
475545
475701
475967
476182
476393
476582
476814
477034
477241
477567
477870
478042
478297
478498
478704
478913
479120
479281
479540
479752
479954
480304
480584
480750
480993
481189
481402
481611
481813
481981
482218
482417
482620
482960
483231
483431
483630
483832
484028
484162
484446
484653
484835
485055
485263
485415
485607
486057
486245
486395
486676
486833
487036
487212
487497
487672
487916
488124
488328
488533
488682
488941
489153
489335
489562
489768
489978
490176
490392
490592
490752
491001
491206
491413
491577
491827
492032
492239
492398
492595
492732
493052
493268
493479
493631
493895
494074
494319
494526
494732
494948
495156
495365
495570
495778
495930
496194
496413
496622
496780
497041
497258
497472
497630
497887
498098
498308
498465
498730
498944
499152
499306
499565
499783
499990
500147
500407
500620
500828
500990
501261
501475
501685
501840
502112
502332
502545
502696
502960
503174
503387
503541
503809
504021
504227
504383
504656
504868
505078
505233
505497
505708
505921
506083
506348
506561
506770
506931
507203
507417
507622
507800
508039
508249
508457
508669
508881
509087
509298
509518
509728
509939
510147
510361
510571
510784
510944
511205
511388
511631
511789
512060
512249
512489
512705
512921
513104
513357
513575
513790
513967
514216
514438
514652
514833
515071
515286
515495
515685
515928
516140
516349
516533
516687
516994
517426
517647
517863
518020
518307
518503
518744
518963
519187
519406
519623
519833
520050
520261
520478
520637
520906
521121
521329
521486
521762
521967
522186
522399
522614
522784
523040
523255
523467
523636
523887
524108
524319
524505
524653
524946
525099
525371
525527
525796
525951
526121
526442
526662
526880
527030
527303
527502
527734
527950
528160
528339
528580
528800
529014
529196
529432
529646
529858
530040
530282
530500
530709
530896
531046
531343
531504
531669
531978
532194
532344
532609
532804
533038
533248
533455
533634
533883
534097
534240
534511
534728
534946
535094
535369
535585
535798
535951
536227
536445
536655
536809
537078
537294
537510
537667
537934
538148
538359
538516
538787
539005
539214
539362
539628
539848
540065
540219
540482
540694
540907
541070
541331
541544
541755
541911
542171
542385
542602
542753
543015
543229
543448
543602
543866
544081
544291
544448
544712
544931
545142
545299
545558
545775
545996
546147
546410
546622
546837
546986
547256
547478
547682
547837
548092
548312
548524
548683
548938
549152
549363
549526
549785
549937
550207
550376
550624
550839
551046
551251
551456
551668
551874
552088
552250
552508
552709
552854
553154
553374
553593
553745
554015
554231
554451
554607
554881
555098
555307
555466
555739
555955
556163
556318
556589
556808
557028
557184
557460
557676
557898
558059
558332
558547
558762
558919
559186
559404
559619
559770
560035
560252
560473
560626
560898
561114
561332
561484
561756
561977
562192
562344
562615
562839
563055
563214
563477
563693
563905
564064
564340
564554
564765
564919
565187
565403
565619
565770
566039
566257
566476
566633
566904
567122
567331
567487
567762
567978
568184
568339
568601
568808
569024
569186
569442
569650
569859
570060
570289
570505
570653
570924
571135
571348
571501
571770
571981
572184
572338
572610
572825
573028
573180
573444
573652
573866
574022
574289
574500
574710
574872
575143
575358
575565
575715
575983
576201
576413
576566
576836
577048
577255
577418
577682
577891
578101
578255
578517
578735
578949
579103
579363
579575
579786
579945
580207
580415
580624
580779
581039
581252
581466
581620
581878
582092
582310
582463
582727
582940
583152
583308
583573
583792
584002
584156
584419
584638
584855
585011
585272
585490
585703
585856
586128
586347
586561
586712
586984
587209
587421
587574
587837
588058
588271
588425
588702
588920
589131
589285
589559
589776
589989
590137
590407
590624
590839
590999
591264
591481
591696
591856
592128
592348
592559
592707
592981
593203
593422
593572
593839
594054
594272
594432
594595
594901
595090
595329
595507
595754
595973
596185
596392
596609
596831
597040
597197
597463
597675
597795
598099
598325
598535
598688
598953
599177
599390
599545
599807
600022
600237
600390
600666
600880
601096
601245
601517
601737
601951
602101
602369
602589
602802
602957
603225
603443
603655
603808
604090
604310
604524
604677
604955
605173
605395
605591
605827
605987
606256
606447
606696
606858
607125
607307
607552
607776
608001
608214
608428
608579
608756
609082
609306
609522
609674
609955
610136
610400
610620
610836
611013
611267
611487
611681
611913
612131
612285
612563
612737
613001
613223
613372
613654
613879
614101
614250
614526
614745
614961
615119
615396
615572
615817
616035
616252
616468
616679
616832
617102
617319
617537
617697
617970
618188
618406
618567
618835
619055
619268
619452
619689
619908
620125
620308
620545
620758
620975
621170
621309
621611
621769
622040
622264
622484
622674
622914
623126
623346
623545
623682
623982
624133
624413
624632
624848
625040
625277
625489
625706
625910
626046
626348
626499
626781
626999
627214
627402
627644
627858
628073
628272
628411
628710
628866
629133
629351
629569
629724
629996
630152
630429
630615
630876
631099
631312
631643
631806
632140
632324
632572
632788
633005
633220
633434
633582
633852
634020
634278
634494
634712
634895
635134
635351
635572
635764
635991
636199
636416
636605
636743
637048
637214
637467
637660
637897
638115
638271
638531
638689
638956
639178
639333
639608
639811
640025
640237
640455
640668
640819
641081
641293
641500
641709
641918
642123
642326
642512
642742
642954
643160
643333
643477
643777
643953
644203
644412
644558
644818
644975
645247
645399
645664
645815
646081
646253
646507
646730
646943
647156
647369
647525
647809
648028
648243
648381
648655
648874
649092
649247
649520
649732
649980
