135
368
607
842
1083
1327
1563
1796
2043
2290
2528
2760
2995
3227
3464
3705
3939
4166
4401
4646
4881
5108
5339
5573
5805
6038
6273
6506
6737
6974
7211
7446
7678
7910
8143
8380
8622
8854
9086
9324
9568
9805
10035
10267
10503
10742
10983
11213
11443
11676
11917
12148
12379
12610
12845
13074
13313
13548
13782
14011
14251
14490
14724
14953
15187
15417
15653
15893
16121
16349
16584
16829
17062
17289
17520
17758
17994
18233
18465
18698
18928
19172
19405
19639
19865
20096
20322
20555
20787
21016
21239
21471
21706
21939
22164
22394
22626
22863
23099
23327
23559
23789
24029
24257
24486
24714
24944
25170
25405
25639
25869
26093
26331
26570
26804
27029
27260
27491
27726
27966
28197
28424
28656
28897
29129
29358
29589
29826
30057
30292
30523
30755
30982
31218
31453
31686
31910
32140
32367
32603
32838
33066
33291
33520
33757
33988
34217
34442
34676
34906
35140
35374
35605
35832
36070
36308
36542
36768
36998
37224
37460
37695
37923
38151
38386
38628
38860
39090
39322
39557
39790
40025
40261
40495
40723
40963
41204
41440
41669
41902
42134
42370
42613
42843
43070
43303
43547
43781
44008
44235
44471
44703
44933
45163
45392
45611
45843
46081
46314
46544
46778
47011
47248
47486
47716
47946
48182
48426
48662
48894
49127
49364
49606
49848
50079
50312
50544
50789
51024
51259
51489
51726
51959
52199
52433
52666
52897
53140
53376
53610
53840
54071
54300
54535
54773
55003
55228
55463
55705
55935
56161
56391
56624
56860
57100
57332
57564
57793
58034
58267
58497
58724
58957
59184
59417
59651
59882
60108
60345
60585
60821
61049
61281
61516
61753
61993
62224
62457
62695
62940
63172
63400
63631
63863
64097
64336
64564
64795
65024
65266
65501
65735
65966
66201
66431
66671
66908
67142
67367
67603
67841
68075
68300
68529
68758
68991
69227
69454
69682
69912
70154
70385
70615
70843
71080
71308
71543
71776
72008
72231
72467
72706
72938
73164
73396
73629
73868
74109
74343
74579
74814
75056
75290
75522
75753
75986
76217
76451
76684
76914
77140
77378
77614
77849
78075
78308
78541
78783
79024
79255
79483
79722
79964
80197
80424
80657
80891
81126
81363
81597
81825
82056
82295
82531
82765
82998
83235
83466
83703
83944
84179
84408
84645
84887
85120
85346
85579
85810
86048
86290
86521
86753
86993
87240
87482
87714
87950
88189
88432
88677
88912
89147
89386
89633
89872
90105
90342
90582
90825
91070
91309
91548
91788
92039
92277
92512
92751
92990
93229
93473
93707
93942
94177
94423
94662
94897
95132
95372
95610
95851
96091
96326
96558
96799
97036
97267
97496
97728
97955
98186
98419
98645
98869
99099
99334
99563
99788
100014
100246
100480
100713
100941
101168
101393
101626
101861
102093
102315
102541
102769
103005
103245
103471
103699
103932
104175
104406
104635
104863
105096
105326
105560
105789
106019
106243
106478
106711
106942
107167
107396
107624
107857
108095
108324
108555
108785
109028
109257
109486
109716
109952
110181
110417
110652
110885
111110
111349
111589
111824
112052
112286
112521
112761
113002
113241
113473
113713
113956
114193
114423
114660
114895
115136
115375
115606
115839
116076
116320
116555
116788
117023
117261
117501
117743
117981
118216
118451
118698
118938
119175
119406
119643
119873
120113
120347
120582
120815
121063
121306
121546
121781
122021
122254
122494
122734
122971
123201
123442
123682
123920
124148
124385
124622
124864
125109
125349
125583
125829
126074
126318
126555
126792
127029
127277
127525
127766
128003
128246
128492
128735
128970
129208
129445
129689
129935
130175
130411
130660
130908
131151
131391
131633
131874
132123
132370
132611
132848
133095
133340
133583
133821
134060
134294
134537
134786
135025
135256
135496
135740
135977
136204
136436
136667
136903
137140
137371
137599
137832
138074
138309
138542
138775
139014
139254
139493
139730
139965
140199
140442
140681
140919
141150
141382
141614
141850
142090
142320
142550
142785
143027
143263
143495
143728
143965
144205
144452
144687
144921
145157
145403
145637
145870
146103
146343
146583
146825
147064
147304
147543
147795
148033
148270
148505
148746
148981
149222
149459
149693
149924
150165
150405
150642
150875
151117
151352
151593
151836
152077
152310
152554
152799
153038
153269
153506
153744
153983
154230
154468
154705
154956
155206
155453
155692
155936
156176
156423
156668
156908
157144
157391
157632
157874
158108
158344
158577
158817
159058
159294
159523
159766
160008
160245
160478
160714
160948
161188
161432
161667
161898
162136
162382
162618
162846
163078
163314
163554
163794
164027
164260
164494
164741
164977
165209
165443
165681
165919
166158
166389
166625
166854
167094
167327
167561
167790
168023
168252
168489
168725
168957
169184
169422
169662
169896
170122
170350
170580
170815
171053
171280
171504
171733
171973
172203
172432
172660
172892
173118
173353
173588
173820
174044
174280
174520
174753
174979
175212
175443
175679
175915
176147
176376
176606
176847
177079
177311
177539
177775
178007
178244
178481
178713
178939
179176
179416
179652
179876
180106
180336
180573
180810
181040
181269
181502
181741
181974
182202
182433
182667
182900
183135
183366
183596
183824
184059
184290
184519
184744
184972
185198
185431
185668
185893
186118
186349
186590
186824
187048
187276
187507
187738
187968
188197
188422
188644
188878
189113
189341
189565
189793
190022
190255
190492
190720
190947
191182
191422
191654
191880
192110
192341
192575
192808
193036
193264
193490
193725
193958
194189
194417
194643
194871
195106
195348
195576
195801
196037
196276
196509
196733
196964
197194
197427
197663
197892
198118
198347
198585
198815
199042
199270
199504
199734
199966
200198
200426
200649
200881
201118
201347
201568
201793
202020
202250
202483
202710
202936
203161
203397
203631
203863
204089
204317
204544
204775
205010
205234
205459
205689
205926
206153
206378
206606
206840
207073
207312
207545
207779
208015
208259
208497
208735
208969
209208
209441
209682
209924
210159
210389
210629
210872
211110
211344
211581
211815
212056
212302
212536
212766
213004
213249
213483
213711
213943
214178
214413
214649
214880
215113
215346
215593
215828
216063
216296
216539
216778
217022
217259
217496
217732
217978
218216
218456
218689
218927
219161
219403
219641
219878
220109
220353
220593
220831
221062
221301
221532
221774
222012
222247
222476
222719
222961
223197
223426
223661
223894
224133
224374
224608
224837
225075
225322
225558
225788
226024
226260
226499
226742
226976
227211
227445
227689
227927
228159
228393
228631
228870
229112
229345
229580
229816
230060
230296
230528
230758
230993
231224
231461
231691
231921
232147
232384
232619
232852
233079
233311
233540
233780
234021
234257
234489
234730
234973
235209
235438
235674
235904
236140
236378
236608
236837
237066
237308
237542
237773
238000
238237
238470
238708
238944
239178
239406
239649
239890
240127
240356
240587
240818
241055
241292
241525
241753
241989
242230
242465
242693
242926
243159
243397
243634
243868
244100
244333
244569
244799
245028
245254
245484
245711
245947
246184
246412
246638
246877
247121
247355
247581
247814
248047
248285
248522
248753
248983
249216
249460
249692
249922
250157
250396
250633
250871
251109
251347
251582
251826
252067
252303
252537
252775
253011
253249
253486
253721
253953
254192
254435
254672
254901
255136
255369
255613
255855
256088
256321
256560
256801
257036
257266
257498
257728
257965
258206
258433
258661
258895
259138
259368
259597
259831
260067
260306
260546
260781
261016
261250
261496
261733
261964
262197
262431
262665
262902
263139
263372
263601
263839
264080
264316
264544
264774
265005
265241
265477
265708
265936
266170
266407
266638
266864
267093
267325
267563
267803
268033
268263
268497
268740
268973
269206
269437
269670
269902
270139
270374
270603
270828
271062
271299
271532
271758
271987
272216
272449
272692
272922
273152
273387
273634
273868
274098
274330
274570
274808
275047
275279
275515
275751
275997
276237
276474
276709
276951
277190
277434
277674
277914
278148
278394
278634
278874
279106
279343
279577
279819
280060
280297
280528
280769
281010
281249
281481
281716
281950
282190
282432
282666
282894
283132
283376
283607
283836
284068
284302
284540
284780
285009
285240
285471
285714
285945
286178
286407
286643
286871
287106
287338
287569
287792
288027
288264
288497
288720
288952
289181
289419
289657
289887
290117
290354
290597
290831
291058
291289
291523
291761
291998
292226
292456
292686
292927
293158
293391
293621
293856
294084
294323
294558
294794
295023
295265
295501
295736
295969
296206
296436
296675
296917
297153
297382
297625
297872
298113
298345
298585
298824
299070
299316
299558
299790
300038
300283
300525
300756
300992
301226
301468
301711
301947
302179
302420
302664
302904
303136
303373
303607
303851
304095
304312
304524
304698
304890
305065
305230
305426
305622
305833
306055
306266
306496
306727
306926
307118
307339
307574
307815
308053
308286
308479
308683
308910
309101
309291
309496
309695
309884
310059
310223
310371
310527
310685
310852
311034
311189
311353
311517
311681
311833
311985
312146
312306
312458
312606
312762
312929
313077
313229
313370
313517
313876
314138
314387
314642
314894
315140
315380
315624
315870
316120
316364
316607
316849
317100
317343
317583
317824
318068
318309
318553
318796
319032
319274
319526
319767
320006
320248
320491
320733
320980
321220
321455
321693
321942
322182
322416
322649
322888
323123
323362
323601
323834
324069
324313
324554
324788
325019
325254
325487
325723
325960
326193
326425
326666
326905
327142
327374
327609
327842
328083
328326
328561
328791
329033
329276
329514
329745
329978
330211
330452
330695
330927
331156
331391
331634
331868
332097
332331
332564
332802
333042
333277
333508
333742
333986
334221
334450
334683
334920
335156
335392
335625
335857
336089
336330
336571
336807
337040
337278
337516
337758
337999
338239
338472
338714
338959
339201
339435
339669
339903
340145
340389
340622
340855
341099
341346
341584
341818
342055
342293
342534
342779
343012
343243
343483
343729
343964
344193
344426
344660
344898
345140
345373
345606
345839
346084
346319
346553
346786
347026
347261
347500
347740
347976
348208
348452
348692
348930
349161
349403
349642
349886
350127
350372
350609
350859
351106
351350
351588
351834
352074
352321
352563
352802
353037
353283
353520
353761
353996
354236
354470
354713
354954
355192
355426
355674
355917
356156
356389
356629
356864
357107
357346
357580
357811
358056
358300
358538
358769
359007
359241
359482
359726
359963
360195
360438
360685
360927
361160
361394
361630
361870
362114
362349
362583
362824
363068
363308
363541
363778
364013
364258
364504
364739
364972
365215
365459
365692
365921
366153
366386
366624
366866
367097
367328
367563
367810
368043
368275
368511
368747
368985
369230
369390
369696
369931
370174
370407
370639
370870
371107
371339
371578
371810
372048
372279
372522
372763
373001
373229
373465
373695
373934
374171
374402
374629
374866
375107
375342
375568
375799
376031
376269
376508
376738
376968
377201
377441
377670
377902
378130
378364
378591
378827
379061
379295
379522
379763
380001
380240
380473
380711
380947
381191
381438
381676
381906
382150
382396
382636
382866
383103
383338
383580
383823
384062
384296
384540
384787
385030
385264
385507
385745
385991
386237
386475
386710
386955
387201
387444
387678
387918
388157
388407
388654
388895
389131
389377
389626
389871
390104
390343
390578
390824
391070
391305
391536
391780
392022
392259
392487
392723
392953
393191
393430
393664
393893
394135
394385
394622
394852
395092
395328
395570
395812
396049
396283
396523
396772
397013
397248
397487
397726
397972
398222
398461
398698
398942
399192
399435
399669
399906
400144
400391
400636
400873
401106
401352
401598
401836
402066
402306
402542
402785
403030
403264
403497
403737
403984
404224
404456
404694
404932
405174
405419
405656
405892
406131
406379
406622
406858
407096
407337
407582
407826
408065
408301
408541
408791
409033
409266
409501
409740
409985
410227
410462
410697
410937
411185
411424
411660
411896
412134
412373
412612
412851
413084
413317
413558
413793
414029
414260
414494
414727
414966
415208
415442
415672
415915
416155
416390
416618
416853
417087
417325
417566
417799
418027
418267
418512
418749
418980
419219
419461
419707
419958
420198
420437
420678
420928
421171
421406
421645
421884
422127
422373
422611
422847
423090
423341
423585
423821
424060
424298
424547
424797
425034
425269
425515
425765
426007
426240
426476
426714
426957
427205
427441
427674
427919
428165
428403
428635
428874
429109
429348
429593
429830
430064
430305
430554
430793
431025
431262
431501
431745
431994
432230
432464
432709
432959
433202
433435
433670
433906
434150
434395
434631
434868
435115
435368
435614
435858
436105
436347
436596
436845
437086
437326
437575
437822
438065
438309
438553
438794
439040
439284
439523
439759
440005
440250
440493
440727
440967
441204
441446
441690
441927
442159
442402
442647
442886
443119
443351
443585
443823
444060
444294
444524
444762
445005
445242
445473
445707
445943
446184
446427
446658
446891
447125
447368
447600
447831
448061
448295
448532
448773
449009
449244
449478
449724
449961
450197
450431
450669
450902
451142
451381
451618
451849
452090
452331
452569
452805
453047
453285
453526
453769
454006
454239
454481
454725
454962
455193
455428
455663
455904
456149
456384
456615
456856
457104
457348
457584
457825
458065
458311
458560
458799
459037
459284
459531
459771
460004
460241
460475
460715
460959
461194
461427
461674
461921
462163
462400
462641
462881
463126
463374
463617
463853
464100
464349
464593
464835
464991
465320
465566
465810
466048
466281
466524
466765
467004
467236
467474
467713
467955
468194
468434
468670
468918
469163
469403
469639
469881
470121
470366
470609
470847
471085
471333
471576
471818
472058
472301
472539
472783
473026
473265
473499
473744
473986
474225
474458
474700
474935
475177
475419
475656
475891
476139
476382
476624
476857
477099
477337
477579
477822
478061
478293
478537
478781
479022
479258
479498
479738
479985
480232
480479
480720
480970
481218
481467
481709
481955
482197
482448
482693
482936
483177
483430
483675
483918
484155
484401
484645
484893
485134
485376
485611
485862
486100
486337
486573
486816
487051
487297
487536
487776
488012
488259
488496
488731
488967
489212
489448
489691
489932
490176
490416
490673
490917
491158
491394
491639
491882
492128
492364
492602
492843
493097
493341
493584
493825
494069
494317
494566
494808
495050
495294
495546
495787
496025
496267
496508
496751
497002
497239
497475
497715
497964
498201
498431
498662
498896
499134
499374
499604
499830
500057
500296
500525
500750
500972
501205
501431
501661
501887
502118
502340
502574
502806
503035
503258
503486
503713
503952
504176
504418
504647
504871
505107
505343
505571
505797
506029
506259
506493
506722
506947
507169
507400
507630
507858
508077
508299
508519
508744
508976
509197
509417
509637
509873
510098
510323
510544
510769
510992
511219
511449
511670
511888
512113
512342
512561
512779
512998
513222
513439
513670
513897
514125
514345
514598
514808
515037
515259
515487
515716
515948
516182
516411
516642
516867
517104
517336
517571
517797
518032
518263
518503
518737
518971
519196
519435
519676
519904
520129
520365
520597
520836
521080
521315
521548
521792
522043
522288
522525
522771
523012
523263
523516
523765
524004
524252
524504
524751
524987
525232
525473
525720
525963
526207
526445
526696
526943
527187
527425
527671
527913
528162
528404
528646
528887
529143
529385
529627
529866
530109
530349
530595
530834
531075
531313
531562
531801
532039
532278
532521
532762
533007
533245
533481
533716
533962
534195
534427
534656
534893
535129
535368
535603
535841
536074
536323
536563
536803
537040
537285
537527
537776
538016
538258
538499
538750
538994
539238
539481
539728
539979
540233
540477
540719
540970
541226
541473
541711
541953
542194
542439
542687
542924
543157
543399
543648
543887
544119
544356
544593
544836
545081
545319
545554
545794
546041
546278
546507
546740
546977
547213
547452
547687
547924
548160
548407
548645
548882
549119
549361
549606
549853
550092
550332
550570
550820
551059
551297
551532
551772
552013
552257
552496
552735
552977
553230
553471
553712
553954
554199
554444
554690
554929
555168
555409
555658
555897
556130
556367
556606
556849
557094
557331
557566
557806
558054
558296
558531
558766
559003
559244
559485
559719
559951
560186
560432
560669
560901
561135
561374
561616
561855
562089
562325
562561
562808
563043
563278
563513
563751
563990
564232
564467
564701
564932
565176
565411
565645
565878
566115
566347
566588
566826
567063
567295
567538
567777
568014
568244
568484
568715
568953
569189
569429
569661
569905
570146
570389
570623
570865
571105
571352
571594
571835
572070
572317
572560
572802
573037
573276
573510
573756
573996
574234
574467
574712
574955
575198
575432
575673
575908
576154
576397
576635
576867
577117
577362
577603
577838
578079
578316
578560
578804
579046
579280
579529
579777
580021
580257
580500
580738
580982
581226
581469
581703
581947
582188
582429
582665
582901
583137
583380
583623
583862
584096
584342
584588
584828
585061
585302
585540
585785
586029
586268
586501
586746
586988
587228
587462
587702
587938
588184
588430
588673
588908
589156
589403
589647
589886
590131
590366
590611
590857
591098
591333
591581
591828
592071
592305
592548
592789
593034
593277
593517
593752
594001
594244
594483
594715
594952
595186
595427
595662
595897
596132
596376
596614
596855
597090
597329
597565
597810
598051
598290
598524
598770
599008
599245
599479
599718
599953
600197
600442
600684
600921
601172
601421
601666
601907
602154
602399
602647
602892
603135
603376
603627
603870
604108
604350
604594
604841
605090
605329
605570
605816
606067
606311
606546
606787
607025
607273
607519
607755
607990
608231
608477
608720
608953
609190
609428
609671
609918
610156
610389
610631
610877
611115
611346
611582
611817
612056
612295
612528
612760
612994
613240
613474
613708
613942
614182
614419
614658
614895
615132
615365
615522
615844
616082
616312
616544
616773
617010
617249
617484
617712
617952
618192
618429
618656
618890
619121
619360
619599
619832
620062
620304
620547
620785
620990
621250
621487
621734
621981
622219
622454
622697
622946
623188
623422
623663
623901
624147
624396
624638
624873
625119
625372
625621
625860
626107
626349
626600
626850
627095
627335
627590
627838
628082
628320
628563
628804
629048
629287
629523
629760
630005
630243
630480
630712
630949
631180
631417
631654
631888
632116
632354
632590
632833
633049
633286
633514
633752
633992
634228
634457
634697
634941
635181
635412
635652
635892
636138
636386
636629
636864
637113
637361
637605
637842
638086
638326
638575
638820
639066
639307
639558
639805
640053
640296
640543
640788
641038
641283
641525
641769
642022
642268
642509
642747
642989
643234
643482
643720
643957
644198
644451
644693
644928
645168
645411
645654
645901
646144
646381
646622
646872
647113
647347
647586
647827
648071
648316
648556
648797
649040
649292
649536
649772
