84
398
712
1034
1369
1713
2037
2350
2663
2973
3302
3632
3962
4285
4611
4929
5242
5570
5900
6224
6530
6832
7144
7464
7787
8107
8415
8723
9027
9322
9630
9954
10282
10591
10893
11186
11472
11761
12051
12339
12622
12912
13185
13458
13741
14031
14334
14642
14925
15197
15475
15762
16053
16352
16656
16958
17252
17533
17815
18100
18397
18689
18978
19269
19560
19862
20174
20494
20823
21167
21500
21810
22132
22453
22783
23128
23458
23776
24091
24405
24721
25041
25375
25706
26010
26311
26639
26969
27304
27623
27935
28244
28560
28863
29157
29469
29783
30090
30388
30690
30986
31312
31636
31948
32263
32567
32868
33166
33469
33779
34093
34392
34680
34982
35290
35600
35913
36218
36531
36839
37142
37451
37775
38101
38432
38750
39061
39378
39694
40015
40341
40669
40977
41267
41544
41831
42127
42422
42715
42991
43269
43547
43818
44096
44388
44677
44978
45271
45554
45841
46139
46441
46752
47061
47361
47657
47946
48229
48518
48823
49127
49424
49701
49979
50249
50529
50817
51116
51402
51688
51967
52240
52513
52795
53089
53383
53669
53949
54222
54519
54816
55109
55406
55711
56012
56309
56609
56920
57254
57594
57930
58247
58543
58847
59168
59491
59823
60158
60478
60786
61090
61396
61729
62060
62361
62674
62996
63091
63420
63633
63969
64293
64629
64931
65246
65577
65908
66226
66566
66891
67200
67511
67833
68165
68507
68832
69138
69447
69759
70084
70419
70753
71089
71402
71711
72022
72351
72681
73003
73308
73602
73913
74231
74558
74897
75215
75538
75855
76169
76495
76832
77163
77499
77829
78148
78476
78816
79160
79517
79854
80162
80466
80774
81109
81454
81791
82114
82444
82775
83109
83435
83778
84119
84428
84736
85074
85420
85754
86070
86373
86685
86994
87307
87656
88001
88339
88669
89000
89347
89700
90061
90400
90738
91070
91398
91744
92095
92449
92793
93132
93473
93819
94159
94518
94870
95200
95530
95865
96228
96591
96942
97286
97614
97951
98292
98649
99013
99360
99694
100017
100362
100724
101087
101428
101773
102114
102457
102827
103199
103557
103882
104212
104550
104884
105200
105533
105853
106183
106506
106844
107210
107569
107919
108254
108575
108920
109276
109636
110000
110348
110693
111048
111411
111793
112167
112523
112882
113247
113617
113986
114356
114705
115064
115158
115314
115744
116093
116438
116771
117100
117435
117781
118146
118514
118854
119178
119514
119847
120172
120504
120825
121149
121459
121761
122093
122447
122804
123146
123477
123825
124180
124537
124895
125234
125564
125890
126228
126593
126954
127300
127638
127969
128292
128633
128986
129354
129695
130009
130334
130651
130990
131321
131649
131958
132268
132577
132912
133274
133650
134019
134366
134723
135106
135301
135726
136089
136436
136787
137139
137509
137888
138233
138583
138936
139312
139691
140064
140435
140777
141128
141496
141875
142253
142611
142949
143308
143681
144061
144441
144810
145158
145509
145879
146251
146606
146962
147316
147672
148053
148436
148812
149167
149523
149883
150261
150650
151014
151368
151730
152094
152472
152863
153245
153600
153962
154346
154724
155103
155478
155839
156188
156557
156946
157325
157674
158029
158387
158756
159119
159490
159868
160217
160575
160952
161335
161718
162088
162457
162820
163205
163596
163973
164335
164694
165055
165442
165834
166204
166560
166921
167295
167656
168032
168390
168729
169055
169393
169766
170130
170483
170845
171193
171539
171904
172274
172647
172993
173331
173702
174088
174457
174835
175194
175547
175916
176287
176665
177034
177380
177698
178031
178390
178754
179131
179492
179838
180215
180599
180976
181344
181692
182044
182388
182734
183075
183427
183769
184106
184449
184808
185158
185495
185823
186155
186491
186847
187208
187571
187897
188209
188532
188862
189213
189563
189902
190237
190565
190883
191228
191582
191937
192264
192588
192920
193259
193607
193951
194286
194624
194955
195287
195638
196006
196367
196704
197047
197393
197735
198084
198434
198781
199119
199459
199812
200170
200526
200872
201215
201552
201896
202244
202600
202962
203310
203650
203999
204345
204691
205034
205366
205698
206049
206420
206787
207161
207522
207880
208236
208625
209016
209378
209747
210111
210474
210850
211241
211623
211977
212353
212727
213096
213463
213814
214153
214497
214849
215235
215568
215982
216338
216690
217039
217391
217721
218061
218392
218713
219068
219443
219820
220185
220550
220917
221282
221669
222039
222390
222731
223066
223419
223784
224138
224487
224827
225173
225517
225891
226268
226636
226998
227352
227706
228088
228468
228827
229193
229551
229901
230274
230662
231034
231375
231736
232106
232477
232854
233229
233594
233941
234311
234707
235085
235453
235814
236175
236545
236938
237327
237682
238029
238383
238735
239110
239483
239830
240178
240538
240906
241282
241665
242037
242386
242752
243140
243529
243904
244270
244640
244996
245376
245771
246141
246490
246846
247225
247600
247977
248352
248708
249047
249408
249784
250146
250509
250854
251204
251552
251920
252301
252662
253019
253375
253746
254124
254502
254874
255221
255587
255964
256344
256734
257110
257460
257825
258209
258587
258959
259326
259684
260024
260377
260753
261128
261480
261829
262187
262551
262924
263299
263647
264003
264358
264716
265099
265472
265818
266169
266535
266900
267270
267639
268000
268348
268695
269073
269453
269816
270173
270537
270889
271261
271644
272007
272362
272716
273078
273449
273823
274191
274539
274897
275263
275622
276003
276379
276727
277070
277435
277819
278182
278540
278908
279256
279605
279985
280374
280736
281091
281455
281823
282193
282576
282946
283298
283659
284024
284408
284780
285148
285503
285851
286223
286600
286967
287328
287682
288034
288395
288786
289150
289508
289870
290215
290576
290955
291320
291674
292027
292376
292740
293119
293495
293845
294196
294554
294910
295272
295640
295990
296336
296689
297071
297446
297809
298185
298540
298894
299269
299627
299991
300326
300640
300972
301302
301659
302026
302395
302747
303103
303475
303864
304241
304613
304979
305340
305707
306083
306473
306834
307191
307546
307910
308237
308639
308982
309328
309670
310030
310409
310787
311135
311479
311826
312174
312541
312907
313250
313596
313945
314289
314651
314987
315307
315614
315924
316236
316566
316904
317234
317586
317930
318280
318638
319020
319402
319762
320109
320469
320840
321221
321586
321951
322302
322650
323016
323394
323763
324114
324456
324816
325184
325549
325914
326259
326573
326886
327204
327557
327918
328269
328620
328974
329341
329722
330091
330467
330827
331199
331576
331954
332322
332689
333052
333407
333743
334111
334458
334786
335096
335400
335710
336020
336346
336671
336996
337311
337626
337953
338302
338661
339016
339363
339726
340074
340436
340787
341116
341443
341775
342125
342508
342890
343270
343637
344009
344380
344748
345126
345489
345829
346156
346499
346861
347207
347528
347859
348192
348522
348870
349230
349595
349932
350240
350539
350843
351151
351457
351780
352103
352442
352787
353152
353535
353900
354252
354581
354911
355233
355575
355932
356294
356648
356995
357362
357746
358130
358500
358863
359222
359580
359960
360335
360701
361033
361363
361719
362059
362409
362745
363049
363348
363644
363940
364268
364620
364955
365272
365584
365915
366277
366655
367037
367415
367783
368158
368551
368946
369318
369657
370014
370372
370729
371094
371452
371804
372149
372502
372879
373240
373595
373944
374302
374663
375033
375415
375775
376124
376476
376838
377206
377568
377927
378286
378626
378974
379347
379721
380075
380416
380757
381121
381466
381797
382143
382470
382798
383123
383469
383846
384198
384548
384896
385245
385607
385982
386358
386717
387069
387422
387769
388136
388476
388797
389108
389434
389770
390118
390467
390824
391176
391525
391876
392256
392629
392981
393322
393675
394030
394392
394774
395130
395460
395803
396153
396527
396898
397269
397623
397966
398316
398683
399047
399412
399766
400113
400452
400803
401149
401491
401829
402178
402536
402898
403283
403662
404031
404382
404751
405130
405502
405886
406251
406606
406959
407341
407728
408090
408452
408808
409156
409530
409911
410280
410632
410982
411333
411708
412081
412441
412794
413151
413500
413865
414255
414616
414962
415318
415670
416043
416411
416771
417125
417470
417817
418185
418564
418917
419266
419622
419971
420343
420701
421068
421421
421763
422114
422484
422861
423217
423555
423892
424230
424562
424895
425241
425584
425922
426267
426622
427005
427380
427735
428094
428438
428797
429175
429556
429909
430259
430625
430984
431356
431725
432070
432417
432758
433092
433455
433816
434164
434499
434852
435218
435586
435958
436333
436677
437020
437386
437769
438135
438483
438830
439176
439526
439878
440234
440584
440926
441255
441605
441955
442312
442651
442969
443290
443608
443940
444300
444648
444976
445307
445644
445998
446351
446715
447076
447420
447759
448113
448464
448828
449182
449516
449865
450214
450556
450910
451255
451600
451941
452284
452644
453001
453354
453696
454031
454379
454720
455086
455453
455803
456134
456471
456818
457177
457520
457863
458212
458547
458889
459252
459603
459962
460307
460630
460980
461331
461675
462021
462358
462692
463025
463381
463761
464116
464468
464801
465148
465503
465866
466221
466558
466881
467209
467555
467906
468266
468611
468933
469272
469615
469964
470329
470682
471033
471373
471714
472078
472439
472799
473150
473504
473857
474197
474558
474919
475263
475592
475931
476294
476654
477022
477372
477715
478042
478388
478749
479117
479464
479809
480163
480520
480875
481252
481614
481949
482287
482629
482999
483344
483691
484033
484363
484705
485048
485408
485772
486126
486477
486838
487215
487598
487955
488305
488656
489006
489363
489720
490086
490434
490764
491103
491459
491816
492167
492497
492822
493149
493481
493822
494175
494513
494841
495170
495506
495855
496216
496577
496926
497245
497570
497904
498243
498577
498892
499192
499510
499821
500139
500465
500792
501119
501439
501762
502082
502428
502773
503107
503421
503725
504045
504378
504723
505090
505439
505769
506087
506420
506769
507112
507445
507793
508135
508482
508850
509232
509609
509953
510302
510665
511037
511413
511772
512124
512470
512823
513191
513557
513911
514267
514614
514967
515334
515705
516085
516441
516791
517136
517505
517879
518236
518581
518933
519284
519645
520014
520386
520737
521080
521441
521814
522174
522540
522875
523221
523564
523915
524263
524619
524967
525315
525655
526023
526401
526770
527130
527485
527826
528159
528507
528875
529225
529579
529944
530312
530690
531067
531431
531778
532016
532474
532865
533237
533599
533955
534316
534688
535058
535421
535771
536118
536483
536873
537273
537658
538042
538402
538749
539125
539507
539877
540218
540570
540938
541306
541667
542034
542398
542742
543087
543469
543848
544206
544557
544917
545286
545658
546037
546415
546758
547097
547457
547838
548212
548577
548944
549306
549664
550050
550433
550799
551144
551486
551844
552206
552572
552933
553273
553627
553988
554356
554726
555093
555439
555775
556139
556512
556874
557234
557594
557945
558299
558676
559056
559407
559750
560114
560472
560837
561211
561563
561885
562191
562518
562885
563257
563613
563969
564332
564688
565053
565438
565820
566170
566528
566898
567277
567647
568017
568386
568733
569087
569467
569846
570201
570551
570911
571274
571632
572005
572370
572721
573061
573417
573803
574174
574530
574881
575219
575559
575912
576279
576643
576986
577333
577697
578080
578463
578833
579195
579551
579897
580268
580649
581024
581382
581738
582111
582488
582862
583232
583588
583952
584309
584684
585063
585418
585761
586109
586481
586854
587221
587591
587926
588271
588630
589009
589372
589728
590081
590437
590790
591160
591532
591871
592202
592535
592863
593206
593545
593879
594217
594553
594906
595265
595639
596016
596369
596719
597081
597467
597839
598207
598574
598912
599260
599627
599991
600349
600694
601044
601397
601763
602128
602485
602838
603173
603507
603866
604230
604574
604908
605250
605582
605937
606302
606675
607019
607354
607687
608017
608359
608712
609059
609398
609751
610114
610501
610882
611264
611617
611967
612341
612709
613068
613424
613776
614128
614491
614854
615231
615590
615935
616289
616657
617036
617394
617765
618121
618470
618825
619201
619584
619939
620284
620648
621012
621381
621751
622123
622461
622799
623162
623530
623873
624215
624553
624892
625229
625592
625972
626333
626676
627024
627375
627727
628082
628435
628785
629132
629486
629864
630245
630626
630983
631342
631696
632065
632446
632814
633174
633527
633891
634280
634649
635011
635367
635730
636101
636484
636857
637218
637556
637898
638241
638590
638920
639256
639596
639947
640289
640651
641026
641398
641738
642074
642438
642813
643178
643544
643902
644269
644631
645014
645397
645750
646100
646452
646822
647196
647571
647936
648293
648649
649005
649373
649752
