20
318
616
960
1190
1476
1751
2065
2420
2653
2944
3234
3522
3799
4104
4409
4706
5003
5283
5569
5874
6144
6453
6747
7044
7392
7620
7921
8184
8497
8798
9091
9439
9678
9955
10292
10558
10840
11137
11435
11726
12061
12343
12577
12887
13188
13481
13783
14062
14343
14620
14931
15293
15527
15817
16117
16409
16673
16969
17275
17633
17928
18170
18449
18728
19010
19377
19674
19971
20189
20493
20805
21117
21363
21669
21961
22253
22396
22533
22829
23104
23400
23703
23999
24303
24592
24878
25178
25441
25750
26050
26343
26637
26928
27184
27488
27781
28087
28382
28678
28965
29253
29520
29813
30144
30424
30721
31014
31304
31582
31863
32170
32446
32735
33059
33335
33620
33898
34196
34501
34796
35094
35359
35662
35940
36227
36531
36830
37125
37418
37711
37978
38277
38574
38874
39167
39465
39757
40041
40302
40608
40912
41211
41512
41860
42150
42373
42652
42953
43244
43556
43846
44139
44422
44699
45003
45308
45600
45898
46181
46457
46746
47035
47340
47698
47938
48233
48529
48811
49088
49392
49684
49935
50248
50559
50820
51100
51395
51699
51993
52295
52589
52876
53156
53438
53742
53874
54037
54170
54296
54472
54584
54879
55174
55463
55776
56052
56350
56645
56939
57230
57507
57793
58096
58393
58669
58951
59266
59819
60125
60422
60715
61013
61310
61365
61592
61856
62126
62456
62740
63041
63335
63625
63905
64190
64488
64786
65057
65336
65652
65952
66208
66508
66811
67100
67399
67696
67981
68262
68552
68849
69146
69450
69705
69994
70280
70563
70868
71170
71470
71769
72073
72361
72636
72935
73232
73529
73831
74119
74408
74678
74961
75260
75553
75849
76146
76428
76700
76968
77257
77549
77839
78133
78425
78708
78983
79260
79554
79845
80136
80431
80721
80999
81267
81554
81845
82134
82324
82639
82934
83211
83489
83790
84083
84379
84679
84978
85262
85538
85832
86128
86424
86723
87023
87313
87590
87876
88199
88491
88794
89085
89380
89653
89927
90224
90517
90808
91108
91409
91694
91970
92268
92508
92820
93993
94272
94569
94862
95162
95462
95766
96049
96325
96624
96916
97207
97507
97807
98096
98372
98663
98957
99014
99162
99252
99555
99857
100116
100350
100624
100903
101187
101478
101766
102062
102349
102617
102894
103177
103464
103752
104042
104340
104613
104882
105172
105450
105741
106039
106329
106626
106899
107175
107473
107764
108057
108363
108666
108945
109224
109516
109810
110106
110399
110704
110998
111269
111566
111857
112150
112456
112756
113048
113328
113612
113909
114197
114503
114816
115121
115407
115660
115958
116248
116537
116839
117142
117435
117713
118001
118293
118586
118886
119186
119488
119765
120048
120342
120629
120926
121229
121531
121818
122094
122389
122679
122968
123266
123572
123868
124202
124438
124725
125014
125317
125618
125921
126202
126482
126777
127063
127356
127659
127966
128254
128531
128838
129106
129380
129666
129950
130236
130502
130771
131056
131330
131612
131901
132202
132488
132761
133048
133334
133624
133918
134218
134527
134808
135087
135387
135677
135976
136284
136585
136880
137159
137458
137747
138037
138308
138613
138912
139193
139481
139771
140056
140358
140659
140963
141269
141547
141833
142112
142398
142696
143003
143292
143563
143857
144143
144433
144734
145048
145347
145635
145938
146199
146487
146788
147087
147395
147681
147961
148253
148535
148827
149130
149438
149728
150007
150302
150588
150870
151168
151477
151739
151995
152287
152577
152862
153156
153457
153765
154063
154348
154643
154936
155204
155503
155816
156114
156394
156688
156973
157251
157548
157852
158155
158443
158701
158987
159279
159586
159904
160189
160482
160761
161055
161338
161619
161918
162228
162528
162811
163103
163391
163672
163931
164224
164539
164831
165117
165413
165702
166000
166305
166583
166882
167162
167457
167742
168022
168316
168623
168924
169213
169500
169787
170068
170363
170629
170911
171216
171500
171791
172072
172356
172653
172963
173265
173562
173855
174146
174400
174747
174996
175305
175594
175882
176170
176449
176740
177040
177349
177644
177927
178186
178462
178742
179042
179358
179666
179954
180259
180524
180802
181092
181392
181697
181990
182280
182568
182846
183134
183431
183743
184007
184281
184587
184874
185157
185452
185771
186049
186343
186635
186921
187200
187489
187788
188096
188391
188679
188971
189248
189531
189820
190078
190388
190692
190993
191283
191568
191834
192135
192441
192736
193026
193318
193594
193880
194178
194489
194786
195048
195345
195642
195929
196204
196511
196813
197105
197401
197686
197964
198253
198551
198858
199156
199416
199711
200001
200293
200599
200884
201183
201472
201773
202054
202328
202615
202920
203223
203517
203816
204079
204340
204635
204949
205261
205534
205831
206124
206402
206686
206976
207284
207586
207876
208177
208463
208735
208998
209282
209598
209900
210218
210485
210763
211103
211340
211646
211942
212237
212534
212813
213090
213376
213665
213951
214267
214588
214850
215126
215408
215703
216011
216307
216606
216898
217172
217443
217713
218044
218358
218627
218929
219211
219487
219771
220073
220377
220670
220975
221257
221540
221841
222117
222422
222720
223020
223316
223594
223875
224163
224470
224745
225041
225360
225663
225914
226198
226498
226798
227095
227402
227691
227969
228251
228538
228827
229118
229427
229742
230007
230287
230632
230879
231178
231474
231781
232065
232336
232617
232914
233197
233484
233805
234114
234373
234658
234945
235245
235544
235845
236143
236423
236706
236989
237280
237585
237895
238193
238482
238753
239036
239334
239632
239927
240237
240531
240799
241081
241392
241672
241967
242274
242574
242853
243137
243422
243720
244018
244296
244613
244925
245180
245460
245758
246058
246352
246665
246960
247234
247516
247777
248084
248408
248686
249043
249270
249552
249837
250136
250432
250728
251039
251324
251571
251874
252184
252452
252748
253057
253358
253638
253921
254206
254503
254796
255090
255408
255709
255972
256254
256546
256841
257138
257451
257745
258021
258296
258594
258913
259183
259493
259792
260074
260355
260636
260932
261226
261485
261810
262098
262376
262660
262953
263244
263540
263850
264138
264433
264703
264993
265287
265579
265891
266194
266479
266761
267045
267327
267620
267942
268236
268524
268809
269090
269384
269674
269967
270285
270580
270858
271108
271405
271702
272008
272300
272602
272888
273173
273452
273744
274036
274339
274648
274939
275200
275491
275806
276076
276369
276683
276979
277259
277542
277829
278117
278405
278717
279045
279312
279597
279879
280167
280454
280757
281065
281357
281645
281929
282223
282511
282800
283117
283418
283697
283980
284269
284557
284842
285158
285462
285752
286037
286319
286608
286892
287191
287511
287795
288085
288368
288657
288942
289233
289549
289847
290120
290408
290717
290992
291276
291590
291896
292182
292466
292749
293035
293292
293609
293937
294208
294502
294785
295075
295355
295645
295957
296254
296522
296823
297110
297394
297679
297989
298296
298586
298871
299158
299433
299730
300027
300335
300630
300924
301209
301496
301776
302068
302382
302674
302968
303253
303545
303828
304109
304422
304725
305037
305302
305593
305879
306160
306462
306768
307064
307360
307642
307931
308209
308499
308808
309103
309403
309682
309985
310264
310545
310855
311158
311449
311739
312031
312298
312585
312918
313257
313495
313793
314080
314367
314645
314935
315235
315546
315835
316127
316419
316697
316977
317287
317590
317872
318169
318485
318750
319030
319327
319632
319928
320223
320513
320805
321099
321370
321675
321970
322270
322563
322853
323134
323426
323715
324015
324308
324604
324900
325181
325468
325768
326062
326357
326652
326947
327234
327510
327808
328114
328400
328700
328993
329286
329561
329846
330151
330459
330743
331040
331334
331614
331890
332191
332485
332781
333106
333358
333656
333935
334229
334526
334813
335115
335439
335710
335989
336271
336570
336863
337163
337453
337757
338058
338318
338617
338910
339205
339505
339805
340090
340365
340676
340958
341256
341556
341856
342148
342425
342710
343001
343314
343603
343902
344202
344481
344757
345058
345352
345647
345946
346247
346532
346808
347103
347397
347691
347994
348288
348583
348862
349147
349442
349736
350036
350337
350638
350918
351197
351492
351781
352076
352375
352676
352991
353241
353537
353829
354118
354418
354724
354993
355285
355573
355862
356154
356459
356757
357059
357340
357618
357901
358202
358526
358802
359109
359391
359667
359964
360250
360540
360811
361133
361424
361699
361993
362283
362569
362868
363170
363462
363753
364063
364384
364614
364915
365216
365526
365815
366090
366382
366668
366954
367257
367565
367859
368139
368433
368721
369028
369302
369607
369909
370193
370480
370767
371054
371349
371653
371958
372247
372528
372821
373106
373395
373719
374006
374299
374578
374875
375160
375441
375724
376044
376342
376628
376919
377205
377489
377787
378088
378379
378674
378981
379255
379535
379822
380125
380435
380731
381012
381287
381591
381862
382157
382466
382767
383050
383344
383630
383891
384194
384525
384807
385099
385388
385674
385957
386248
386547
386862
387150
387434
387728
388010
388288
388585
388897
389200
389483
389781
390065
390341
390628
390934
391239
391532
391823
392110
392388
392678
392976
393284
393583
393889
394162
394443
394726
395019
395332
395632
395911
396222
396497
396772
397064
397369
397671
397965
398264
398550
398840
399111
399409
399716
400011
400308
400599
400876
401149
401461
401767
402065
402356
402654
402936
403209
403497
403807
404092
404398
404701
404987
405262
405548
405844
406149
406444
406743
407031
407328
407593
407887
408196
408493
408789
409087
409360
409638
409930
410238
410540
410834
411137
411422
411693
411983
412304
412581
412875
413182
413471
413746
414029
414328
414623
414921
415221
415516
415795
416079
416370
416671
416970
417266
417571
417855
418129
418413
418708
419006
419338
419617
419909
420182
420461
420756
421056
421334
421659
421971
422229
422514
422795
423097
423397
423696
423999
424262
424559
424838
425140
425437
425733
426045
426331
426603
426872
427179
427475
427772
428083
428379
428657
428940
429225
429523
429822
430125
430428
430708
430992
431276
431572
431870
432181
432477
432770
433043
433324
433620
433914
434214
434536
434820
435097
435377
435663
435958
436254
436568
436864
437150
437433
437716
438010
438303
438604
438920
439200
439481
439762
440057
440350
440646
440959
441255
441531
441811
442103
442392
442684
442999
443298
443562
443870
444141
444433
444725
445031
445337
445627
445914
446180
446485
446769
447066
447381
447676
447957
448239
448530
448818
449105
449442
449726
450008
450288
450576
450861
451149
451461
451753
452059
452341
452623
452912
453201
453501
453810
454105
454394
454693
454968
455252
455544
455859
456156
456441
456725
457021
457300
457586
457899
458201
458489
458774
459063
459357
459630
459938
460244
460540
460835
461117
461409
461686
461979
462295
462593
462880
463166
463458
463740
464023
464341
464643
464933
465219
465505
465789
466052
466383
466677
466972
467265
467549
467836
468118
468413
468698
469009
469333
469588
469879
470160
470444
470756
471056
471343
471610
471926
472197
472477
472784
473086
473380
473672
473960
474232
474515
474847
475124
475421
475721
476010
476299
476577
476861
477178
477522
477766
478057
478349
478630
478907
479215
479512
479806
480104
480398
480679
480957
481259
481559
481861
482149
482442
482729
483009
483297
483600
483904
484206
484495
484788
485065
485347
485648
485944
486245
486564
486832
487115
487391
487693
487991
488284
488574
488896
489166
489445
489739
490036
490333
490635
490904
491212
491486
491769
492072
492366
492665
492965
493265
493542
493799
494115
494408
494701
495000
495299
495586
495861
496158
496454
496726
497047
497338
497630
497911
498194
498487
498781
499084
499375
499681
499985
500243
500540
500830
501124
501427
501731
502014
502292
502607
502873
503165
503466
503773
504064
504341
504635
504938
505215
505515
505818
506115
506394
506680
506968
507258
507561
507860
508168
508448
508727
509022
509307
509600
509923
510208
510498
510775
511070
511356
511642
511938
512248
512547
512828
513117
513407
513691
513990
514293
514573
514879
515155
515446
515726
516024
516326
516634
516925
517198
517472
517777
518050
518350
518661
518958
519241
519534
519820
520094
520392
520724
521009
521296
521583
521873
522152
522448
522752
523061
523371
523633
523926
524207
524495
524794
525104
525396
525689
525978
526261
526538
526834
527142
527444
527733
528018
528335
528592
528882
529183
529494
529785
530071
530358
530654
530928
531230
531536
531829
532121
532410
532681
532969
533297
533578
533877
534164
534460
534743
535018
535289
535622
535915
536207
536504
536791
537068
537353
537650
537927
538239
538555
538816
539095
539379
539674
539983
540280
540555
540852
541152
541420
541705
542012
542317
542608
542912
543197
543459
543762
544055
544362
544657
544959
545247
545522
545808
546096
546423
546701
546999
547295
547573
547856
548146
548461
548770
549046
549350
549633
549907
550190
550492
550808
551090
551399
551690
551962
552245
552539
552843
553158
553443
553738
554016
554299
554586
554888
555184
555505
555788
556069
556347
556633
556934
557232
557513
557841
558124
558399
558677
558973
559277
559571
559880
560153
560449
560749
561009
561306
561603
561909
562208
562488
562773
563029
563342
563635
563932
564241
564530
564808
565090
565385
565679
565952
566287
566576
566850
567130
567420
567715
568008
568319
568621
568906
569183
569467
569758
570050
570356
570660
570948
571227
571518
571809
572102
572398
572711
573004
573284
573566
573856
574171
574443
574758
575056
575336
575618
575904
576192
576498
576796
577101
577387
577672
577955
578245
578522
578828
579174
579438
579729
580011
580304
580590
580880
581182
581491
581793
582059
582352
582635
582924
583242
583544
583831
584088
584382
584668
584954
585260
585567
585860
586150
586435
586723
586986
587288
587625
587903
588194
588476
588770
589054
589338
589653
589937
590219
590539
590808
591091
591373
591685
591987
592278
592568
592850
593153
593420
593719
594027
594324
594621
594906
595195
595475
595785
596073
596370
596667
596955
597246
597525
597801
598121
598419
598709
599001
599295
599575
599854
600161
600461
600780
601049
601341
601625
601905
602200
602505
602797
603096
603411
603685
603961
604247
604550
604845
605146
605440
605715
606009
606285
606588
606889
607184
607482
607779
608061
608339
608632
608937
609254
609583
609825
610113
610391
610680
610981
611279
611582
611870
612170
612468
612729
613030
613322
613624
613923
614220
614501
614769
615074
615372
615667
615966
616269
616554
616830
617127
617419
617714
618029
618312
618607
618884
619172
619466
619760
620058
620349
620674
620935
621219
621509
621795
622101
622404
622701
622980
623291
623560
623850
624143
624445
624755
625042
625304
625600
625924
626187
626489
626795
627089
627366
627659
627949
628227
628533
628863
629136
629417
629702
629991
630274
630577
630879
631173
631459
631757
632042
632325
632615
632916
633229
633522
633800
634096
634366
634650
634973
635268
635567
635851
636142
636427
636708
637005
637304
637613
637926
638189
638478
638758
639055
639358
639667
639959
640244
640556
640815
641099
641398
641711
642008
642292
642587
642867
643148
643444
643752
644054
644341
644636
644921
645198
645495
645791
646098
646393
646684
646971
647249
647540
647837
648170
648444
648733
649025
649302
649581
649877
