198
460
710
966
1223
1480
1743
2017
2288
2552
2804
3053
3304
3564
3837
4103
4372
4637
4902
5156
5409
5561
5924
6196
6470
6738
6997
7248
7507
7768
7923
8292
8565
8831
9095
9351
9601
9847
10107
10382
10646
10909
11170
11425
11677
11932
12188
12451
12626
12989
13254
13509
13757
14008
14255
14518
14788
15054
15313
15576
15835
16085
16336
16591
16855
17129
17400
17661
17918
18170
18428
18684
18948
19214
19485
19748
20009
20263
20516
20765
21032
21202
21577
21839
22102
22353
22605
22862
23116
23377
23642
23918
24182
24431
24678
24842
25193
25464
25734
25999
26255
26518
26773
27022
27274
27531
27796
28067
28336
28591
28837
29090
29350
29606
29871
30138
30402
30663
30918
31167
31417
31670
31936
32208
32477
32737
32987
33235
33491
33750
34012
34275
34544
34820
35077
35323
35572
35832
36095
36368
36634
36793
37153
37415
37667
37916
38167
38431
38694
38961
39227
39479
39722
39977
40233
40490
40747
41010
41273
41529
41783
42028
42275
42525
42794
43059
43324
43575
43821
44063
44314
44569
44818
45077
45341
45610
45763
46104
46348
46595
46846
47108
47373
47636
47890
48142
48395
48644
48890
49146
49412
49680
49944
50200
50450
50693
50951
51209
51473
51737
52003
52258
52514
52771
53022
53273
53539
53816
54080
54334
54589
54838
55092
55350
55609
55874
56141
56414
56669
56920
57167
57314
57668
57942
58211
58474
58731
58986
59241
59495
59744
60004
60271
60545
60810
61063
61312
61560
61820
62082
62350
62610
62877
63131
63384
63637
63888
64136
64401
64676
64939
65189
65439
65687
65935
66191
66446
66707
66867
67230
67489
67737
67980
68227
68477
68742
69010
69270
69524
69773
70029
70274
70525
70781
71048
71312
71580
71833
72080
72328
72485
72848
73119
73380
73645
73905
74161
74299
74661
74919
75185
75461
75728
75984
76234
76486
76738
76998
77259
77527
77789
78057
78314
78563
78809
79064
79318
79585
79858
80121
80371
80626
80883
81132
81381
81642
81908
82173
82438
82691
82936
83183
83446
83704
83972
84233
84494
84748
85005
85258
85508
85762
86033
86307
86571
86823
87073
87319
87574
87834
88095
88367
88632
88903
89159
89410
89657
89913
90174
90445
90716
90982
91235
91488
91747
92002
92256
92523
92794
93062
93332
93585
93831
94086
94356
94621
94887
95157
95426
95682
95937
96190
96447
96708
96986
97258
97524
97779
98031
98279
98543
98810
99079
99344
99618
99883
100137
100385
100637
100895
101167
101441
101702
101960
102114
102470
102722
102974
103235
103503
103764
104026
104280
104529
104772
105029
105294
105561
105818
106082
106340
106590
106843
107092
107346
107605
107878
108027
108396
108647
108897
109141
109398
109663
109928
110188
110454
110717
110964
111208
111458
111712
111978
112248
112509
112764
113015
113271
113520
113775
114035
114305
114569
114834
115089
115338
115584
115839
116106
116376
116640
116902
117159
117414
117668
117918
118174
118343
118715
118984
119239
119488
119739
119990
120245
120509
120778
121036
121303
121561
121814
122057
122312
122570
122840
123114
123379
123630
123880
124142
124393
124646
124913
125183
125450
125717
125971
126111
126468
126736
127002
127271
127538
127800
128054
128311
128567
128821
129081
129353
129627
129893
130144
130394
130646
130902
131163
131426
131693
131956
132221
132471
132720
132966
133224
133486
133759
134027
134291
134538
134791
135049
135305
135560
135829
136097
136366
136628
136880
137127
137380
137652
137919
138186
138450
138714
138964
139221
139475
139731
139996
140274
140547
140809
141062
141311
141561
141825
142095
142362
142626
142896
143157
143410
143658
143913
144177
144451
144724
144988
145247
145497
145755
146010
146269
146533
146803
146948
147329
147585
147836
148084
148344
148614
148886
149145
149403
149655
149907
150163
150416
150673
150939
151214
151475
151725
151974
152225
152476
152736
153003
153270
153532
153798
154054
154307
154557
154818
155081
155355
155630
155887
156138
156391
156649
156804
157167
157433
157700
157966
158225
158472
158721
158969
159233
159499
159767
160029
160284
160532
160783
161037
161290
161549
161817
162091
162352
162597
162844
163095
163349
163610
163759
164143
164408
164671
164924
165174
165423
165682
165846
166218
166495
166754
167001
167256
167514
167770
168030
168298
168564
168829
169089
169337
169588
169844
170116
170383
170652
170918
171178
171429
171684
171938
172199
172463
172734
173002
173264
173511
173759
173931
174274
174544
174808
175073
175331
175593
175841
176090
176339
176603
176873
177140
177404
177660
177904
178158
178415
178671
178926
179193
179455
179715
179973
180219
180465
180723
180996
181261
181524
181786
182041
182291
182545
182801
183061
183325
183600
183868
184126
184374
184622
184873
185139
185412
185678
185943
186207
186467
186720
186968
187224
187491
187764
188032
188291
188544
188791
189048
189301
189561
189823
190094
190358
190615
190868
191118
191367
191629
191903
192172
192432
192694
192944
193198
193455
193713
193977
194245
194522
194785
195038
195289
195543
195799
196070
196341
196609
196872
197138
197394
197648
197903
198166
198328
198706
198976
199231
199478
199732
199988
200245
200504
200767
201031
201292
201546
201792
202041
202296
202563
202830
203097
203355
203611
203859
204111
204368
204631
204891
205160
205432
205693
205937
206185
206438
206698
206969
207238
207503
207767
208031
208282
208532
208790
209060
209329
209603
209870
210126
210374
210636
210894
211158
211426
211692
211953
212215
212475
212722
212972
213237
213514
213786
214050
214310
214565
214823
215083
215339
215607
215878
216155
216418
216674
216924
217180
217438
217705
217979
218248
218509
218768
219025
219278
219530
219794
220063
220335
220609
220868
221117
221372
221635
221899
222163
222433
222702
222964
223227
223478
223731
223991
224270
224539
224808
225069
225325
225580
225839
226097
226363
226630
226906
227173
227321
227428
227491
227679
227933
228186
228456
228730
229000
229262
229525
229782
230037
230289
230550
230819
231092
231262
231624
231879
232130
232392
232657
232921
233191
233463
233726
233986
234239
234493
234748
235027
235300
235570
235832
236093
236344
236601
236864
237133
237400
237677
237947
238086
238448
238700
238953
239216
239495
239762
240020
240280
240538
240790
241038
241293
241561
241830
241981
242354
242610
242857
243110
243367
243633
243895
244158
244418
244675
244926
245174
245423
245685
245959
246227
246485
246741
246995
247247
247499
247756
248019
248284
248557
248818
249069
249313
249566
249817
250085
250361
250627
250885
251141
251400
251650
251897
252159
252426
252698
252970
253226
253476
253731
253993
254254
254424
254794
255065
255327
255589
255841
256095
256356
256632
256907
257180
257445
257702
257956
258219
258484
258754
259024
259301
259573
259833
260085
260340
260600
260874
261157
261431
261698
261962
262227
262487
262740
263008
263283
263559
263834
264094
264346
264602
264870
265134
265401
265675
265945
266210
266472
266726
266981
267246
267527
267797
268068
268330
268586
268840
269101
269363
269524
269900
270178
270440
270699
270949
271200
271458
271729
272003
272268
272530
272790
273049
273306
273559
273822
274094
274370
274640
274895
275147
275399
275662
275924
276188
276454
276722
276981
277234
277486
277743
277997
278272
278545
278814
279073
279329
279577
279834
280100
280365
280625
280897
281168
281421
281664
281914
282167
282432
282704
282968
283231
283489
283747
283994
284245
284502
284767
285031
285299
285558
285808
286054
286307
286563
286828
287089
287352
287613
287870
288124
288370
288620
288876
289147
289416
289679
289929
290181
290429
290683
290944
291209
291471
291742
292009
292263
292506
292757
293012
293274
293548
293812
294071
294326
294585
294831
295081
295338
295605
295866
296134
296393
296540
296885
297143
297400
297663
297925
298186
298443
298699
298952
299198
299446
299706
299978
300243
300505
300756
301008
301257
301513
301769
302033
302296
302562
302823
303074
303316
303562
303814
304077
304345
304607
304865
305115
305366
305611
305857
306627
306888
307145
307392
307629
307876
308133
308392
308648
308907
309166
309416
309665
309910
310152
310401
310668
310932
311192
311443
311582
311929
312178
312431
312682
312937
313196
313460
313704
313944
314181
314421
314660
314811
314913
315174
315418
315667
315908
316147
316386
316626
316869
317122
317376
317635
317892
318136
318376
318617
318870
319123
319378
319632
319892
320144
320389
320634
320882
321126
321385
321654
321914
322163
322412
322660
322905
323155
323407
323670
323931
324196
324455
324704
324946
325197
325446
325709
325983
326243
326498
326753
327011
327259
327510
327768
328037
328304
328573
328831
329080
329332
329591
329854
330122
330388
330653
330913
331170
331423
331675
331929
332195
332472
332741
332999
333251
333503
333758
334014
334276
334544
334808
335080
335339
335589
335837
336093
336352
336623
336897
337163
337419
337676
337933
338186
338439
338704
338971
339242
339512
339764
340010
340267
340531
340795
341060
341332
341596
341856
342116
342365
342618
342880
343156
343420
343690
343948
344203
344455
344716
344980
345248
345517
345793
346061
346320
346570
346826
347088
347364
347640
347912
348175
348438
348699
348958
349213
349479
349750
350020
350287
350544
350794
351050
351317
351584
351848
352121
352389
352650
352912
353167
353425
353690
353971
354238
354503
354764
355020
355278
355544
355813
356085
356360
356645
356909
357168
357424
357686
357953
358227
358495
358764
359024
359285
359539
359795
360056
360326
360596
360868
361133
361388
361635
361893
362156
362425
362691
362957
363222
363480
363736
363985
364239
364498
364778
365048
365310
365564
365819
366068
366322
366582
366845
367107
367377
367639
367890
368133
368383
368633
368896
369168
369427
369682
369934
370188
370431
370674
370927
371088
371191
371374
371710
371965
372208
372446
372691
372943
373197
373451
373708
373960
374212
374460
374700
374945
375194
375457
375719
375980
376227
376470
376711
376957
377205
377454
377711
377966
378228
378478
378719
378957
379199
379445
379701
379965
380221
380470
380716
380964
381204
381442
381690
381948
382202
382460
382712
382955
383187
383429
383681
383930
384179
384431
384686
384928
385170
385409
385645
385880
386133
386397
386648
386894
387138
387379
387616
387860
388105
388356
388608
388866
389121
389366
389600
389839
390082
390332
390590
390847
391104
391352
391595
391843
392086
392325
392572
392831
393093
393350
393596
393841
394079
394326
394575
394832
395083
395339
395592
395841
396087
396326
396569
396818
397085
397343
397598
397849
398094
398333
398583
398835
399088
399343
399605
399871
400120
400362
400608
400855
401107
401372
401636
401896
402146
402400
402649
402898
403145
403400
403664
403933
404201
404449
404693
404939
405196
405448
405709
405968
406230
406483
406733
406980
407226
407474
407732
408003
408267
408516
408764
409009
409251
409498
409744
410003
410256
410519
410782
411027
411264
411506
411751
412010
412276
412534
412786
413035
413283
413525
413768
414015
414273
414532
414797
415059
415307
415548
415800
416057
416310
416569
416835
417095
417353
417605
417851
418098
418351
418618
418880
419144
419398
419644
419883
420133
420384
420634
420891
421153
421418
421670
421914
422157
422404
422655
422915
423177
423437
423689
423940
424190
424436
424675
424925
425184
425445
425704
425952
426196
426434
426680
426928
427076
427430
427690
427939
428184
428430
428667
428904
429145
429404
429658
429910
430158
430398
430631
430869
431111
431349
431595
431845
432100
432341
432578
432805
432896
433035
433264
433506
433631
434001
434250
434389
434713
434873
435107
435416
435654
435896
436141
436389
436632
436867
436948
437093
437329
437568
437753
437804
437937
438049
438142
438290
438538
438779
439012
439250
439384
439476
439705
439930
440174
440419
440663
440893
441125
441461
441583
441813
441951
442047
442280
442463
442521
442766
442918
443018
443254
443481
443711
443942
444068
444202
444414
444665
444908
445147
445382
445626
445854
446084
446314
446555
446795
447045
447294
447498
447760
447928
448076
448219
448457
448695
448932
449174
449415
449652
449887
450148
450195
450338
450564
450802
451047
451292
451533
451767
451998
452225
452455
452688
452920
453163
453405
453654
453898
454135
454359
454586
454816
455056
455300
455545
455791
456027
456263
456499
456671
456952
457087
457374
457496
457670
457915
458160
458393
458617
458841
459077
459308
459543
459781
460021
460257
460492
460723
460946
461167
461389
461628
461873
462111
462344
462578
462807
463030
463255
463396
463488
463635
463950
464195
464441
464674
464907
465130
465351
465575
465808
466047
466286
466529
466763
466999
467231
467457
467680
467906
468139
468379
468622
468867
469102
469328
469555
469782
470016
470249
470482
470722
470964
471205
471438
471612
471726
471950
472118
472353
472545
472664
472870
473081
473320
473557
473782
474004
474244
474474
474712
474956
475207
475448
475683
475906
476140
476361
476626
476836
476891
477077
477318
477390
477551
477752
478026
478252
478478
478605
478708
478791
478949
479189
479288
479438
479689
479919
480148
480380
480618
480849
481092
481335
481579
481823
482066
482304
482531
482763
482995
483238
483488
483738
483980
484217
484452
484686
484917
485149
485392
485628
485875
486124
486365
486591
486818
487047
487275
487511
487757
487998
488141
488471
488715
488941
489167
489390
489623
489860
490105
490254
490593
490829
491052
491285
491515
491745
491979
492221
492463
492703
492939
493170
493394
493617
493851
494095
494335
494577
494818
495054
495279
495510
495744
495974
496211
496452
496702
496948
497188
497414
497638
497866
498101
498340
498581
498824
499062
499305
499543
499772
499995
500222
500459
500699
500945
501189
501426
501655
501882
502117
502345
502579
502815
503059
503300
503541
503778
504005
504232
504455
504690
504935
505178
505413
505652
505888
506114
506342
506574
506803
507033
507276
507527
507763
507998
508223
508449
508672
508904
509143
509379
509619
509857
510098
510330
510557
510778
511005
511238
511476
511720
511963
512198
512425
512652
512883
513108
513340
513574
513813
514052
514295
514532
514757
514983
515206
515437
515678
515917
516151
516387
516624
516848
517078
517309
517536
517768
518010
518262
518507
518746
518973
519200
519428
519660
519899
520139
520380
520618
520861
521098
521325
521545
521774
522010
522248
522492
522742
522981
523211
523442
523679
523908
524143
524387
524634
524875
525124
525369
525598
525827
525964
526306
526553
526803
527050
527293
527531
527769
528011
528244
528482
528729
528987
529238
529487
529724
529960
530194
530435
530683
530930
531181
531431
531683
531924
532163
532396
532634
532875
533129
533387
533638
533882
534119
534362
534601
534840
535081
535332
535582
535835
536087
536325
536557
536793
537042
537289
537540
537790
538041
538282
538521
538763
538997
539232
539479
539740
539989
540236
540477
540711
540940
541177
541423
541665
541913
542162
542416
542655
542894
543126
543358
543595
543847
544103
544349
544596
544835
545075
545311
545551
545788
546034
546286
546542
546792
547028
547263
547496
547737
547980
548231
548476
548724
548968
549210
549449
549681
549919
550160
550414
550671
550923
551164
551403
551639
551878
552121
552367
552617
552865
553121
553370
553609
553839
554077
554316
554565
554823
555075
555321
555562
555807
556046
556282
556518
556763
557013
557268
557519
557759
557992
558225
558469
558711
558960
559207
559455
559700
559944
560183
560413
560650
560887
561138
561394
561646
561889
562126
562361
562598
562838
563078
563325
563573
563823
564074
564314
564541
564772
565010
565258
565510
565763
566019
566262
566509
566752
566991
567226
567474
567730
567987
568244
568491
568645
568966
569216
569463
569715
569970
570228
570479
570729
570975
571215
571450
571691
571953
572207
572461
572709
572952
573186
573429
573677
573920
574170
574429
574693
574941
575181
575422
575663
575907
576163
576422
576679
576930
577183
577431
577672
577908
578152
578407
578667
578926
579177
579426
579662
579799
580151
580404
580656
580912
581168
581422
581669
581910
582151
582392
582648
582908
583165
583415
583660
583901
584141
584385
584627
584876
585129
585393
585642
585883
586119
586359
586595
586842
587103
587356
587605
587854
588104
588341
588578
588818
589068
589318
589579
589838
590083
590321
590563
590811
591055
591305
591560
591817
592066
592317
592557
592793
593030
593278
593534
593786
594034
594280
594405
594599
594762
595001
595134
595243
595484
595731
595989
596247
596498
596731
596965
597207
597447
597695
597949
598205
598451
598701
598947
599185
599417
599656
599903
600158
600411
600664
600910
601143
601384
601629
601871
602113
602365
602618
602868
603114
603350
603585
603817
604065
604319
604572
604820
605070
605309
605549
605792
606026
606267
606516
606770
607020
607272
607505
607739
607968
608207
608449
608693
608858
609187
609439
609682
609917
610002
610145
610378
610618
610794
611117
611362
611604
611835
612068
612306
612542
612773
613017
613267
613514
613758
613995
614227
614456
614693
614941
615185
615430
615673
615918
616149
616380
616613
616845
617080
617322
617521
617821
618060
618291
618521
618694
618744
618978
619135
619464
619712
619957
620208
620450
620685
620916
621155
621395
621649
621910
622160
622405
622646
622891
623129
623369
623614
623868
624121
624380
624634
624872
625108
625348
625597
625846
626104
626357
626609
626855
627100
627344
627583
627826
628079
628346
628603
628855
629098
629342
629582
629825
630076
630331
630585
630839
631099
631340
631575
631814
632061
632315
632574
632834
633090
633336
633585
633832
634076
634318
634572
634833
635093
635352
635598
635839
636080
636333
636587
636846
637105
637364
637612
637861
638110
638351
638594
638853
639119
639376
639627
639874
640118
640359
640607
640857
641113
641371
641636
641890
642138
642377
642619
642864
643122
643390
643645
643900
644152
644404
644649
644896
645145
645407
645669
645936
646194
646446
646688
646937
647193
647452
647707
647970
648227
648484
648734
648978
649222
649473
649741
