276
572
889
1209
1522
1823
2121
2418
2724
3037
3350
3664
3974
4270
4563
4863
5174
5495
5808
6113
6412
6715
7017
7322
7637
7950
8258
8555
8848
9146
9466
9785
10094
10401
10698
10998
11299
11608
11922
12243
12549
12842
13138
13435
13750
14071
14386
14691
14995
15291
15587
15893
16208
16525
16837
17131
17425
17731
18043
18359
18671
18979
19280
19579
19876
20176
20499
20817
21123
21420
21718
22018
22332
22648
22960
23270
23574
23870
24165
24470
24783
25105
25415
25713
26009
26318
26625
26934
27249
27556
27858
28155
28453
28754
29078
29394
29701
30003
30300
30601
30911
31223
31534
31852
32090
32405
32699
33003
33319
33641
33953
34253
34550
34853
35158
35466
35782
36094
36401
36695
36987
37293
37615
37933
38243
38548
38841
39139
39440
39750
40068
40390
40693
40984
41280
41582
41900
42218
42531
42834
43137
43433
43729
44039
44354
44672
44979
45276
45570
45881
46195
46506
46815
47119
47419
47717
48016
48324
48649
48962
49264
49563
49859
50161
50475
50791
51102
51416
51711
52004
52302
52609
52930
53252
53558
53851
54154
54454
54763
55075
55389
55699
56001
56294
56587
56900
57223
57538
57843
58144
58441
58743
59049
59359
59678
59992
60289
60581
60880
61185
61508
61823
62133
62432
62734
63034
63334
63648
63962
64275
64577
64872
65166
65482
65800
66111
66420
66719
67017
67318
67623
67932
68254
68565
68864
69157
69457
69767
70088
70401
70708
71011
71310
71609
71910
72224
72540
72856
73156
73451
73750
74063
74378
74688
75003
75302
75600
75895
76195
76510
76836
77148
77448
77744
78039
78347
78658
78970
79284
79595
79889
80180
80482
80794
81115
81431
81737
82031
82334
82637
82944
83259
83570
83878
84177
84473
84770
85092
85411
85719
86024
86319
86617
86920
87231
87541
87864
88166
88459
88755
89055
89371
89693
90008
90308
90610
90907
91204
91512
91828
92146
92457
92754
93044
93350
93591
93934
94244
94553
94851
95150
95446
95748
96066
96390
96699
96995
97292
97590
97900
98215
98529
98837
99144
99438
99732
100037
100350
100672
100984
101286
101579
101886
102191
102502
102815
103125
103428
103730
104026
104325
104647
104966
105277
105574
105870
106170
106480
106791
107102
107418
107722
108017
108311
108618
108933
109255
109566
109865
110162
110464
110769
111079
111396
111707
112012
112308
112603
112906
113232
113549
113856
114160
114453
114753
115057
115368
115683
116006
116308
116600
116896
117198
117516
117833
118145
118447
118751
119046
119343
119654
119970
120286
120594
120892
121185
121494
121808
122119
122432
122736
123034
123335
123634
123941
124265
124580
124883
125178
125474
125777
126093
126408
126717
127028
127325
127618
127915
128226
128546
128866
129171
129466
129766
130068
130377
130691
131005
131314
131616
131910
132203
132515
132840
133156
133459
133759
134056
134360
134664
134975
135294
135608
135906
136198
136496
136804
137127
137442
137747
138044
138348
138647
138948
139263
139577
139887
140188
140485
140782
141099
141415
141725
142035
142332
142631
142934
143240
143549
143872
144182
144480
144773
145073
145382
145702
146016
146321
146625
146923
147221
147520
147837
148155
148471
148771
149064
149365
149676
149992
150302
150615
150914
151213
151511
151812
152127
152453
152767
153064
153361
153656
153966
154278
154591
154903
155213
155509
155800
156104
156416
156738
157052
157354
157648
157952
158254
158562
158877
159189
159495
159794
160090
160389
160712
161030
161339
161643
161935
162235
162542
162852
163164
163486
163789
164082
164377
164677
164994
165314
165627
165927
166231
166526
166822
167131
167448
167764
168075
168372
168665
168972
169284
169599
169911
170215
170515
170816
171114
171417
171741
172058
172365
172659
172956
173258
173574
173886
174195
174508
174808
175103
175398
175707
176026
176346
176652
176947
177245
177549
177859
178170
178486
178792
179094
179389
179686
179994
180320
180636
180941
181239
181533
181836
182097
182432
182745
183062
183361
183652
183948
184253
184574
184893
185204
185500
185801
186100
186402
186714
187032
187344
187651
187944
188238
188548
188869
189184
189493
189794
190090
190392
190693
191002
191323
191640
191942
192234
192533
192839
193158
193471
193780
194085
194386
194684
194982
195295
195611
195926
196228
196523
196822
197135
197448
197758
198072
198372
198670
198967
199267
199579
199906
200219
200521
200816
201110
201417
201730
202044
202357
202668
202964
203255
203555
203866
204189
204502
204808
205102
205407
205707
206013
206328
206640
206949
207247
207541
207839
208161
208481
208790
209096
209390
209690
209992
210300
210612
210937
211243
211537
211832
212130
212446
212768
213079
213301
213630
213928
214225
214527
214843
215162
215475
215771
216064
216368
216679
216993
217306
217617
217915
218213
218510
218813
219130
219453
219764
220061
220357
220653
220965
221280
221514
221846
222154
222449
222741
223041
223354
223675
223992
224297
224588
224891
225196
225505
225819
226132
226438
226737
227031
227329
227647
227969
228283
228583
228881
229178
229486
229796
230108
230423
230734
231031
231323
231625
231939
232262
232574
232876
233176
233477
233779
234084
234400
234713
235022
235318
235611
235913
236234
236551
236860
237167
237462
237760
238061
238369
238685
239008
239315
239610
239906
240203
240518
240837
241150
241455
241760
242055
242349
242655
242971
243291
243600
243898
244192
244500
244809
245119
245433
245739
246041
246339
246637
246940
247266
247582
247888
248187
248481
248784
249094
249409
249720
250036
250336
250628
250923
251228
251550
251871
252179
252475
252777
253077
253380
253692
254007
254320
254623
254917
255209
255521
255841
256156
256465
256766
257062
257363
257668
257977
258296
258613
258914
259207
259506
259810
260131
260447
260756
261058
261360
261657
261953
262267
262582
262899
263201
263497
263792
264104
264419
264730
265044
265344
265643
265942
266245
266554
266877
267192
267493
267789
268085
268392
268712
269026
269334
269641
269940
270235
270534
270846
271166
271486
271788
272288
272594
272905
273216
273532
273838
274138
274434
274730
275039
275365
275682
275986
276285
276579
276882
277189
277504
277818
278134
278432
278724
279022
279326
279650
279967
280275
280573
280876
281175
281475
281789
282104
282417
282691
282949
283242
283554
283870
284182
284494
284795
285093
285394
285696
286003
286326
286640
286941
287236
287532
287840
288155
288429
288736
289045
289346
289642
289937
290250
290566
290886
291190
291484
291784
292091
292403
292715
293030
293334
293633
293927
294224
294534
294860
295175
295477
295776
296070
296597
296911
297221
297537
297837
298130
298427
298732
299051
299376
299685
299981
300282
300582
300887
301196
301514
301826
302128
302422
302717
303025
303347
303665
303972
304276
304492
304784
305089
305400
305713
306035
306338
306632
306928
307229
307547
307869
308182
308483
308784
309082
309380
309688
310005
310323
310634
310928
311221
311530
311845
312160
312470
312776
313074
313374
313671
313976
314300
314617
314922
315218
315515
315817
316134
316447
316756
317068
317313
317572
317867
318172
318486
318807
319119
319419
319716
320022
320327
320636
320951
321260
321563
321858
322154
322458
322782
323099
323406
323708
324001
324303
324608
324921
325234
325553
325854
326146
326659
326977
327300
327613
327914
328216
328514
328813
329119
329435
329752
330063
330358
330649
330956
331273
331841
332149
332447
332745
333042
333346
333664
333987
334294
334589
334886
335402
335723
336039
336348
336654
336949
337244
337546
337859
338178
338498
338799
339090
339392
339701
340013
340324
340639
340941
341240
341535
341833
342150
342471
342784
343086
343385
343681
343989
344299
344611
344925
345236
345533
345824
346126
346437
346760
347075
347379
347674
347980
348282
348588
348905
349215
349525
349821
350090
350350
350669
350989
351299
351607
351905
352203
352506
352811
353123
353446
353754
354048
354343
354641
354953
355278
355593
355897
356200
356460
356721
357023
357338
357654
357971
358269
358561
358863
359173
359491
359800
360112
360413
360711
361006
361307
361622
361946
362258
362496
362757
363053
363276
363613
363929
364239
364553
364851
365143
365442
365747
366068
366389
366697
366992
367294
367596
367854
368125
368442
368754
369059
369351
369644
369951
370274
370591
370899
371204
371498
371799
372099
372409
372726
373047
373348
373639
373936
374238
374557
374876
375190
375491
375795
376090
376387
376698
377012
377330
377638
378148
378452
378768
379085
379396
379704
380002
380301
380598
380902
381223
381542
381848
382143
382443
382742
383056
383372
383910
384217
384512
384805
385109
385422
385745
386059
386358
386652
386958
387266
387576
387891
388202
388505
388804
389100
389400
389723
389995
390270
390571
390870
391168
391474
391783
392093
392411
392720
393016
393308
393610
393922
394245
394557
394860
395162
395462
395763
396070
396386
396700
397010
397305
397598
397900
398218
398539
398804
399074
399372
399670
399969
400274
400587
400912
401221
401513
401810
402107
402418
402737
403052
403361
403668
403963
404257
404562
404873
405159
405437
405737
406028
406333
406638
406951
407265
407576
407882
408182
408476
408772
409013
409300
409616
409917
410217
410512
410816
411124
411437
411752
412019
412280
412570
412867
413170
413487
413810
414122
414420
414722
415021
415324
415635
415951
416208
416479
416775
417068
417368
417689
418008
418315
418621
418917
419172
419436
419745
420055
420376
420684
420980
421275
421574
421886
422165
422441
422750
423055
423356
423653
423954
424268
424583
424900
425200
425493
425738
426013
426328
426641
426954
427259
427559
427857
428154
428462
428788
429102
429403
429700
429997
430300
430617
430931
431242
431473
431792
432086
432381
432688
433006
433328
433634
433930
434234
434453
434788
435100
435416
435727
436032
436325
436618
436925
437246
437563
437870
438172
438470
438771
439074
439383
439701
440019
440320
440611
440910
441213
441530
441847
442158
442463
442764
443062
443362
443676
443991
444309
444610
444901
445198
445508
445825
446137
446452
446755
447055
447350
447647
447963
448285
448599
448898
449194
449489
449793
450106
450423
450737
451051
451347
451637
451937
452246
452567
452883
453188
453484
453788
454090
454398
454714
454958
455288
455591
455885
456179
456493
456813
457127
457429
457729
458029
458333
458640
458952
459271
459582
459879
460171
460471
460779
461100
461415
461720
462023
462325
462625
462929
463246
463560
463873
464170
464462
464762
465077
465394
465706
466018
466317
466618
466915
467218
467534
467859
468169
468462
468758
469055
469364
469681
469996
470308
470616
470910
471203
471508
471820
472141
472453
472752
473047
473353
473659
473971
474288
474600
474905
475199
475494
475798
476120
476436
476742
477042
477338
477641
477945
478260
478575
478895
479195
479485
479782
480085
480402
480718
481029
481331
481637
481934
482234
482549
482862
483179
483484
483776
484070
484382
484696
485007
485320
485624
485924
486222
486523
486834
487159
487472
487770
488065
488360
488664
488978
489294
489606
489919
490216
490507
490808
491118
491437
491756
492061
492352
492654
492956
493267
493582
493896
494206
494511
494804
495099
495414
495734
496047
496348
496646
496944
497248
497557
497806
498085
498405
498702
498992
499291
499595
499913
500232
500541
500839
501143
501443
501744
502061
502375
502691
502994
503254
503508
503818
504134
504450
504759
505062
505362
505665
505966
506274
506557
506875
507180
507471
507768
508069
508385
508700
509009
509254
509528
509824
510118
510425
510738
511026
511302
511601
511861
512124
512428
512739
513268
513575
513881
514116
514375
514652
514931
515247
515558
515858
516152
516451
516757
517070
517384
517704
518010
518304
518598
518898
519213
519535
519846
520146
520449
520747
521045
521356
521675
521992
522302
522598
522886
523191
523505
523821
524130
524435
524734
525038
525336
525643
525968
526285
526589
526882
527178
527479
527794
528107
528417
528728
529031
529327
529624
529936
530253
530572
530877
531170
531468
531771
532080
532395
532711
533018
533322
533619
533915
534225
534550
534863
535165
535462
535755
536059
536366
536683
536999
537316
537614
537907
538206
538511
538832
539148
539456
539751
540055
540354
540656
540900
541181
541497
541807
542101
542391
542699
542955
543289
543598
543904
544200
544501
544800
545110
545432
545753
546060
546353
546647
546947
547262
547575
547886
548194
548497
548795
549093
549406
549723
550041
550346
550639
550935
551242
551552
551865
552179
552484
552788
553085
553382
553694
554018
554523
554821
555114
555415
555722
556035
556349
556670
556972
557262
557560
557864
558184
558476
558749
559048
559349
559646
559945
560257
560498
560836
561149
561445
561736
562039
562354
562670
562979
563286
563584
563886
564183
564488
564811
565132
565439
565734
566030
566329
566642
566955
567477
567784
568081
568374
568679
568935
569216
569536
569841
570131
570431
570667
570940
571252
571568
571874
572177
572427
572690
572992
573316
573633
573940
574239
574532
574831
575140
575454
575765
576084
576385
576680
576977
577282
577600
577921
578230
578528
578826
579127
579430
579740
580060
580375
580684
580979
581271
581579
581898
582213
582521
582826
583122
583424
583724
584031
584355
584674
584978
585270
585567
585871
586188
586500
586808
587116
587416
587713
588011
588325
588645
588963
589266
589559
589858
590165
590476
590788
591102
591407
591709
592004
592301
592617
592940
593252
593554
593853
594148
594452
594760
595071
595389
595699
595996
596288
596590
596902
597227
597538
597841
598141
598439
598738
599043
599360
599676
599989
600285
600579
600881
601198
601517
601825
602133
602430
602730
603026
603328
603649
603971
604278
604574
604872
605171
605483
605798
606109
606419
606722
607017
607312
607618
607934
608256
608566
608865
609161
609467
609774
610085
610400
610707
611009
611307
611603
611908
612235
612551
612855
613155
613450
613751
614058
614373
614684
615004
615302
615593
615893
616198
616518
616840
617151
617447
617748
618046
618348
618660
619180
619490
619784
620077
620381
620701
621021
621329
621637
621932
622231
622529
622836
623081
623370
623679
623971
624269
624566
624876
625195
625713
626021
626317
626612
626912
627226
627545
628058
628356
628654
628960
629270
629583
629897
630202
630504
630799
631094
631403
631729
632047
632349
632616
632875
633177
633483
633796
634109
634429
634727
635018
635316
635620
635940
636202
636479
636779
637082
637378
637676
637987
638301
638618
638928
639223
639514
639821
640137
640452
640762
641068
641369
641668
641965
642270
642594
642910
643213
643508
643805
644108
644424
644741
645048
645361
645659
645952
646448
646761
647082
647393
647899
648203
648507
648818
649132
649444
649751
