124
382
644
892
1149
1393
1648
1892
2147
2392
2630
2880
3128
3378
3623
3871
4120
4369
4624
4871
5120
5362
5617
5866
6109
6361
6610
6862
7117
7377
7633
7887
8150
8405
8658
8908
9168
9424
9678
9940
10195
10446
10703
10962
11220
11465
11732
11978
12233
12491
12746
12999
13249
13512
13762
14013
14258
14506
14757
15001
15261
15509
15759
16014
16269
16528
16779
17034
17282
17535
17790
18049
18296
18547
18801
19051
19305
19552
19807
20057
20314
20575
20833
21088
21345
21602
21858
22109
22367
22611
22865
23116
23373
23620
23868
24124
24370
24626
24871
25124
25372
25626
25879
26125
26370
26618
26868
27115
27361
27609
27857
28107
28354
28609
28858
29108
29360
29610
29866
30111
30361
30608
30857
31106
31355
31599
31848
32097
32345
32595
32838
33083
33334
33581
33831
34080
34323
34566
34817
35061
35303
35546
35789
36035
36282
36535
36784
37031
37281
37534
37785
38031
38284
38537
38786
39042
39296
39547
39793
40051
40301
40552
40804
41058
41310
41556
41817
42064
42314
42570
42822
43075
43319
43573
43817
44069
44318
44565
44813
45058
45317
45568
45817
46067
46321
46571
46823
47085
47338
47590
47848
48109
48363
48610
48870
49122
49377
49639
49895
50146
50399
50665
50920
51178
51437
51694
51949
52207
52468
52722
52978
53237
53494
53747
53990
54243
54489
54737
54993
55243
55491
55742
55996
56244
56497
56747
57000
57252
57504
57762
58010
58263
58517
58769
59023
59272
59528
59779
60031
60284
60537
60787
61034
61290
61538
61789
62035
62286
62540
62791
63048
63298
63552
63807
64070
64330
64584
64842
65101
65355
65613
65870
66126
66380
66645
66903
67160
67421
67679
67942
68202
68466
68724
68981
69249
69510
69771
70026
70284
70538
70795
71054
71309
71555
71819
72069
72326
72575
72835
73090
73342
73604
73854
74105
74355
74609
74857
75098
75353
75600
75849
76101
76359
76616
76869
77135
77392
77648
77898
78154
78410
78662
78925
79174
79421
79682
79936
80188
80435
80694
80947
81205
81468
81727
81976
82233
82494
82749
82999
83256
83509
83764
84019
84282
84532
84788
85055
85317
85580
85837
86099
86352
86615
86883
87145
87404
87671
87931
88191
88446
88706
88962
89218
89482
89735
89993
90247
90509
90761
91014
91266
91516
91765
92016
92265
92511
92758
93010
93258
93509
93751
94001
94241
94489
94732
94977
95221
95462
95711
95954
96202
96440
96687
96932
97179
97422
97670
97910
98155
98403
98648
98897
99139
99387
99642
99895
100150
100398
100650
100898
101155
101411
101660
101917
102166
102424
102673
102934
103185
103434
103691
103944
104196
104437
104687
104930
105176
105427
105671
105917
106159
106409
106656
106898
107142
107387
107632
107871
108125
108368
108609
108856
109108
109352
109591
109842
110085
110329
110576
110830
111078
111323
111584
111835
112090
112337
112596
112848
113106
113365
113620
113872
114130
114389
114648
114896
115155
115405
115660
115921
116176
116428
116680
116944
117200
117453
117709
117962
118216
118479
118744
118999
119258
119525
119788
120041
120303
120553
120810
121066
121329
121584
121839
122096
122352
122603
122844
123103
123347
123595
123847
124102
124349
124602
124859
125109
125361
125608
125854
126103
126349
126604
126845
127093
127340
127594
127844
128093
128349
128591
128847
129095
129353
129598
129847
130102
130353
130605
130851
131104
131354
131606
131862
132113
132370
132619
132876
133127
133376
133628
133870
134122
134369
134620
134866
135111
135363
135613
135863
136108
136357
136607
136856
137110
137360
137614
137863
138117
138366
138617
138861
139112
139359
139607
139855
140106
140352
140598
140854
141102
141349
141602
141850
142096
142346
142601
142846
143087
143338
143586
143837
144079
144334
144585
144835
145093
145346
145601
145853
146119
146378
146634
146893
147152
147405
147665
147921
148174
148423
148687
148942
149198
149450
149708
149964
150223
150489
150747
151003
151268
151529
151789
152040
152299
152554
152812
153079
153334
153591
153850
154110
154366
154616
154877
155132
155386
155647
155903
156160
156414
156677
156926
157176
157427
157678
157921
158175
158424
158673
158919
159177
159426
159677
159917
160174
160419
160667
160920
161171
161421
161671
161929
162182
162436
162687
162940
163195
163453
163711
163964
164218
164479
164737
164994
165243
165502
165749
166004
166261
166514
166769
167019
167281
167531
167787
168036
168287
168539
168794
169051
169304
169557
169811
170067
170325
170578
170835
171091
171347
171607
171862
172123
172380
172648
172910
173166
173426
173681
173942
174197
174456
174709
174963
175222
175480
175734
175986
176244
176499
176755
177018
177272
177527
177790
178048
178305
178556
178811
179066
179321
179580
179834
180088
180347
180609
180868
181121
181379
181635
181892
182155
182416
182675
182931
183197
183458
183712
183978
184236
184497
184765
185033
185300
185566
185837
186106
186363
186633
186896
187157
187423
187683
187941
188199
188467
188729
188985
189253
189514
189773
190038
190300
190560
190820
191089
191348
191601
191863
192117
192376
192637
192895
193146
193405
193664
193919
194170
194418
194672
194919
195165
195416
195663
195900
196150
196401
196650
196890
197146
197387
197637
197890
198145
198392
198639
198896
199146
199398
199641
199889
200138
200387
200639
200892
201139
201394
201653
201906
202160
202413
202665
202914
203164
203417
203665
203911
204159
204411
204658
204906
205158
205406
205656
205909
206163
206409
206659
206909
207156
207407
207645
207896
208142
208387
208639
208884
209134
209381
209636
209886
210138
210386
210635
210883
211136
211385
211630
211874
212120
212368
212615
212854
213100
213342
213587
213834
214082
214328
214573
214823
215074
215326
215568
215819
216064
216312
216563
216813
217061
217307
217562
217811
218060
218308
218552
218803
219053
219312
219564
219815
220075
220329
220585
220826
221083
221329
221579
221832
222086
222338
222589
222850
223104
223354
223609
223863
224114
224370
224625
224879
225127
225390
225640
225892
226139
226393
226642
226889
227148
227398
227645
227900
228157
228414
228660
228921
229172
229426
229686
229943
230192
230442
230705
230958
231211
231461
231716
231965
232219
232475
232724
232970
233224
233478
233729
233975
234229
234477
234721
234972
235223
235467
235714
235972
236218
236471
236717
236973
237218
237472
237723
237971
238220
238468
238725
238971
239217
239469
239716
239964
240216
240471
240718
240969
241226
241479
241734
241979
242235
242479
242728
242979
243224
243468
243712
243965
244213
244463
244708
244958
245212
245468
245726
245976
246226
246478
246732
246985
247231
247481
247727
247976
248226
248479
248726
248975
249232
249490
249747
250001
250258
250517
250772
251028
251279
251534
251787
252044
252304
252561
252831
253098
253372
253599
253946
254237
254539
254824
255093
255362
255626
255886
256145
256400
256659
256905
257170
257421
257676
257923
258177
258429
258679
258937
259184
259432
259681
259931
260182
260421
260671
260917
261165
261416
261667
261918
262161
262420
262672
262923
263169
263421
263669
263918
264173
264425
264667
264912
265164
265407
265645
265892
266133
266377
266624
266878
267124
267367
267623
267871
268120
268363
268617
268869
269118
269374
269632
269881
270133
270393
270645
270892
271145
271392
271642
271889
272139
272383
272628
272879
273130
273375
273616
273869
274108
274353
274602
274852
275097
275343
275597
275847
276093
276335
276583
276825
277070
277318
277566
277808
278048
278301
278492
278787
279030
279281
279526
279781
280035
280289
280543
280799
281060
281317
281569
281824
282073
282324
282577
282826
283076
283326
283586
283835
284093
284341
284595
284847
285100
285356
285601
285851
286099
286349
286597
286842
287089
287335
287583
287832
288080
288327
288573
288825
289072
289321
289559
289806
290046
290290
290534
290777
291015
291253
291497
291738
291981
292217
292458
292702
292945
293196
293440
293686
293926
294179
294425
294670
294911
295153
295390
295629
295874
296112
296348
296585
296828
297070
297307
297542
297780
298021
298260
298503
298742
298984
299219
299467
299708
299947
300186
300429
300670
300910
301162
301401
301643
301885
302136
302376
302613
302856
303098
303338
303577
303820
304058
304296
304537
304781
305023
305262
305504
305749
305996
306237
306486
306731
306970
307215
307465
307708
307945
308193
308435
308676
308924
309172
309414
309655
309904
310151
310400
310638
310890
311133
311378
311627
311876
312119
312368
312621
312870
313116
313358
313608
313853
314100
314354
314601
314850
315096
315351
315596
315839
316088
316335
316580
316828
317081
317328
317579
317835
318090
318342
318594
318851
319106
319361
319623
319880
320136
320392
320655
320908
321162
321418
321672
321929
322183
322442
322693
322944
323206
323459
323718
323969
324226
324478
324734
324991
325242
325492
325749
326001
326260
326507
326764
327015
327275
327536
327796
328053
328310
328568
328829
329078
329333
329581
329835
330092
330350
330605
330858
331122
331376
331631
331883
332137
332390
332646
332903
333157
333413
333672
333926
334184
334435
334693
334950
335206
335465
335721
335974
336231
336488
336746
336994
337253
337507
337764
338021
338281
338530
338779
339037
339293
339540
339790
340041
340295
340549
340805
341059
341307
341561
341814
342069
342314
342568
342819
343071
343327
343581
343829
344081
344339
344592
344842
345100
345354
345609
345865
346125
346376
346627
346884
347138
347392
347639
347897
348149
348399
348655
348907
349156
349408
349664
349916
350163
350415
350667
350916
351169
351425
351674
351922
352181
352432
352689
352939
353204
353463
353725
353992
354253
354516
354783
355050
355313
355569
355835
356092
356351
356617
356877
357135
357397
357667
357929
358185
358450
358706
358967
359230
359485
359737
359992
360249
360496
360745
360996
361245
361494
361749
362008
362263
362517
362781
363035
363297
363547
363804
364052
364308
364563
364805
365054
365306
365557
365809
366054
366311
366559
366811
367065
367316
367566
367816
368076
368323
368577
368825
369079
369335
369595
369855
370112
370370
370637
370895
371156
371409
371663
371919
372174
372433
372686
372938
373191
373446
373707
373956
374217
374478
374740
375007
375268
375533
375797
376061
376329
376586
376849
377110
377371
377633
377890
378150
378407
378668
378925
379180
379435
379692
379945
380199
380454
380705
380955
381213
381461
381711
381959
382210
382460
382709
382966
383217
383468
383721
383979
384235
384482
384736
384989
385245
385500
385760
386013
386264
386529
386784
387039
387288
387545
387800
388052
388312
388564
388811
389069
389325
389580
389826
390084
390333
390584
390839
391097
391350
391601
391866
392122
392378
392640
392897
393152
393410
393672
393925
394177
394439
394693
394949
395197
395453
395704
395959
396220
396474
396725
396983
397240
397496
397743
398003
398252
398502
398756
399012
399262
399512
399777
400028
400283
400540
400795
401052
401317
401586
401842
402104
402378
402637
402902
403162
403418
403678
403940
404206
404465
404726
404997
405257
405519
405781
406042
406298
406566
406829
407087
407346
407613
407872
408131
408396
408653
408913
409179
409444
409707
409970
410241
410500
410762
411021
411276
411534
411795
412057
412313
412571
412834
413092
413350
413605
413863
414124
414387
414652
414910
415170
415435
415694
415953
416206
416462
416718
416977
417237
417495
417750
418011
418274
418539
418796
419059
419319
419582
419845
420105
420363
420620
420878
421137
421391
421651
421909
422169
422430
422696
422956
423212
423477
423737
423994
424253
424511
424769
425028
425295
425553
425813
426079
426340
426602
426861
427127
427387
427650
427917
428177
428438
428703
428963
429223
429481
429743
430004
430267
430537
430798
431056
431325
431588
431850
432109
432371
432630
432893
433158
433417
433672
433941
434204
434470
434732
434999
435264
435530
435802
436065
436325
436592
436856
437118
437381
437644
437902
438163
438430
438690
438945
439215
439474
439736
439996
440258
440518
440776
441043
441299
441557
441820
442083
442341
442597
442861
443120
443385
443652
443911
444172
444441
444703
444964
445220
445481
445739
445999
446263
446518
446772
447036
447292
447552
447807
448069
448328
448589
448859
449115
449373
449637
449899
450161
450416
450683
450941
451205
451474
451738
452002
452273
452541
452810
453072
453340
453600
453859
454124
454380
454639
454899
455159
455417
455671
455933
456188
456450
456715
456975
457235
457496
457762
458022
458274
458537
458793
459055
459316
459575
459833
460090
460357
460612
460871
461126
461384
461642
461904
462164
462421
462677
462941
463199
463458
463712
463970
464230
464489
464754
465010
465270
465533
465796
466063
466318
466582
466842
467105
467371
467631
467890
468149
468410
468671
468924
469185
469446
469705
469972
470236
470500
470766
471034
471301
471558
471826
472089
472353
472621
472889
473154
473424
473695
473962
474226
474497
474768
475037
475314
475581
475844
476118
476384
476647
476909
477172
477433
477698
477964
478226
478485
478759
479029
479290
479559
479823
480086
480351
480616
480875
481132
481401
481661
481918
482180
482437
482694
482956
483221
483482
483737
484005
484262
484518
484778
485036
485294
485555
485822
486079
486337
486608
486872
487135
487400
487666
487926
488192
488456
488712
488971
489238
489496
489747
490002
490257
490513
490768
491035
491289
491550
491817
492079
492339
492592
492855
493110
493373
493638
493896
494153
494420
494683
494951
495210
495476
495739
496008
496279
496540
496800
497065
497331
497591
497848
498109
498363
498622
498885
499145
499402
499665
499929
500193
500448
500715
500973
501232
501498
501760
502025
502288
502554
502817
503076
503342
503602
503863
504131
504393
504657
504921
505189
505456
505716
505986
506246
506514
506781
507044
507309
507574
507844
508110
508372
508638
508905
509173
509443
509710
509973
510241
510511
510781
511039
511306
511567
511831
512100
512361
512625
512890
513155
513423
513680
513943
514203
514465
514727
514986
515247
515508
515771
516033
516286
516547
516805
517065
517329
517591
517852
518119
518384
518649
518907
519169
519434
519692
519957
520218
520475
520739
520999
521264
521512
521775
522033
522295
522558
522818
523077
523337
523605
523867
524121
524385
524647
524909
525179
525446
525710
525976
526250
526521
526781
527055
527319
527586
527856
528122
528383
528650
528916
529179
529435
529700
529963
530221
530492
530755
531017
531287
531554
531824
532082
532352
532616
532879
533149
533414
533677
533947
534217
534482
534745
535017
535283
535550
535824
536087
536351
536619
536882
537146
537401
537666
537923
538186
538454
538711
538973
539242
539510
539778
540038
540306
540567
540833
541106
541366
541629
541903
542171
542442
542709
542977
543246
543523
543802
544065
544332
544608
544874
545143
545412
545672
545937
546203
546468
546732
546993
547267
547531
547796
548066
548327
548593
548864
549130
549395
549664
549933
550198
550460
550726
550991
551259
551531
551796
552064
552333
552603
552868
553124
553389
553646
553910
554174
554432
554691
554957
555222
555489
555749
556014
556277
556545
556814
557076
557342
557607
557873
558140
558398
558662
558921
559185
559452
559713
559975
560243
560506
560772
561032
561296
561557
561819
562084
562344
562604
562867
563127
563389
563645
563906
564168
564427
564691
564949
565207
565470
565728
565991
566241
566504
566760
567018
567277
567534
567792
568048
568312
568571
568825
569084
569344
569602
569865
570127
570387
570642
570909
571170
571426
571685
571941
572200
572454
572719
572972
573227
573489
573748
574007
574262
574522
574779
575038
575302
575564
575819
576084
576343
576605
576857
577122
577379
577635
577899
578154
578411
578669
578931
579188
579441
579701
579958
580212
580476
580732
580990
581249
581514
581775
582028
582295
582555
582817
583082
583346
583606
583870
584138
584396
584651
584911
585169
585422
585685
585940
586195
586453
586718
586979
587233
587500
587757
588018
588284
588547
588806
589069
589337
589600
589857
590124
590384
590644
590910
591173
591433
591696
591963
592219
592473
592735
592989
593244
593505
593762
594020
594279
594544
594806
595060
595326
595583
595846
596116
596380
596642
596902
597173
597430
597688
597950
598205
598468
598731
598995
599253
599515
599787
600048
600310
600572
600830
601091
601354
601616
601871
602129
602395
602654
602913
603174
603432
603691
603957
604221
604480
604738
605007
605265
605525
605783
606037
606296
606553
606815
607069
607328
607589
607848
608109
608364
608625
608883
609144
609406
609663
609919
610178
610434
610692
610938
611195
611449
611708
611967
612226
612487
612746
613011
613274
613529
613788
614047
614307
614568
614827
615086
615341
615608
615867
616127
616386
616644
616907
617166
617434
617693
617949
618216
618477
618738
618997
619258
619518
619782
620050
620314
620576
620849
621118
621384
621654
621919
622184
622451
622719
622984
623247
623519
623786
624042
624313
624576
624838
625105
625367
625632
625893
626162
626425
626676
626942
627198
627458
627717
627977
628231
628489
628751
629012
629265
629529
629789
630048
630316
630578
630839
631099
631368
631633
631887
632155
632414
632673
632938
633201
633459
633719
633986
634248
634503
634770
635030
635292
635558
635822
636082
636343
636611
636872
637129
637394
637656
637916
638182
638448
638706
638969
639237
639497
639751
640015
640274
640530
640793
641050
641306
641560
641828
642083
642339
642598
642855
643113
643374
643640
643897
644155
644425
644684
644942
645200
645457
645713
645974
646239
646495
646751
647018
647277
647540
647798
648059
648320
648582
648848
649105
649361
649626
649883
