179
588
994
1399
1824
2237
2666
3093
3519
3948
4370
4790
5229
5655
6088
6538
6973
7420
7853
8310
8750
9199
9638
10069
10509
10917
11337
11747
12169
12612
13053
13491
13942
14378
14831
15265
15705
16140
16571
17012
17440
17881
18335
18764
19215
19656
20097
20531
20973
21408
21846
22286
22724
23160
23605
24037
24475
24893
25324
25744
26163
26601
27026
27458
27884
28328
28766
29193
29635
30040
30476
30897
31336
31774
32220
32673
33107
33552
33995
34439
34872
35318
35747
36175
36616
37057
37492
37932
38364
38790
39210
39648
40074
40506
40945
41380
41816
42242
42681
43105
43533
43956
44372
44799
45219
45652
46081
46513
46957
47386
47814
48249
48678
49122
49559
49996
50426
50852
51290
51709
52140
52565
52974
53405
53827
54258
54685
55113
55549
55975
56393
56815
57232
57650
58090
58526
58989
59432
59885
60328
60775
61227
61668
62121
62554
63001
63423
63858
64288
64705
65127
65553
65965
66387
66809
67239
67656
68083
68515
68927
69355
69781
70206
70645
71063
71498
71913
72349
72779
73204
73640
74070
74505
74940
75366
75790
76206
76625
77055
77464
77887
78306
78715
79132
79541
79957
80368
80784
81213
81631
82060
82482
82916
83337
83765
84193
84614
85031
85455
85869
86292
86712
87145
87579
88010
88455
88881
89322
89754
90181
90625
91053
91494
91921
92368
92806
93252
93685
94130
94561
94990
95425
95840
96271
96693
97120
97546
97964
98389
98805
99226
99658
100090
100524
100968
101404
101848
102267
102696
103124
103543
103972
104391
104821
105256
105686
106120
106543
106976
107402
107827
108253
108683
109106
109541
109962
110392
110808
111235
111659
112075
112500
112918
113340
113762
114186
114622
115040
115466
115884
116298
116715
117142
117558
117981
118399
118824
119245
119668
120094
120511
120939
121347
121763
122178
122590
123016
123431
123863
124283
124700
125121
125541
125960
126386
126810
127232
127651
128064
128489
128899
129316
129729
130138
130561
130978
131411
131839
132263
132691
133101
133521
133928
134346
134770
135191
135627
136054
136492
136930
137348
137778
138220
138650
139092
139517
139957
140397
140821
141267
141696
142126
142543
142964
143389
143806
144235
144660
145100
145537
145985
146423
146856
147292
147726
148146
148569
148991
149424
149863
150293
150744
151170
151613
152042
152476
152917
153346
153778
154222
154647
155075
155499
155922
156352
156766
157198
157615
158046
158481
158899
159332
159752
160186
160611
161041
161466
161878
162304
162721
163147
163569
163990
164410
164824
165235
165666
166085
166514
166946
167377
167803
168233
168668
169078
169500
169916
170329
170756
171177
171609
172024
172462
172882
173294
173716
174138
174574
175001
175441
175874
176291
176710
177123
177539
177950
178367
178787
179211
179642
180072
180501
180925
181369
181798
182242
182682
183130
183573
184017
184457
184884
185319
185748
186184
186610
187043
187467
187884
188307
188733
189140
189561
189966
190379
190790
191202
191627
192037
192463
192887
193300
193726
194148
194576
194993
195428
195853
196263
196689
197112
197547
197971
198410
198832
199268
199700
200130
200561
200992
201428
201858
202282
202712
203136
203560
203984
204405
204816
205238
205655
206067
206480
206899
207315
207738
208156
208593
209015
209450
209889
210323
210758
211180
211613
212042
212479
212923
213348
213788
214222
214669
215103
215539
215968
216389
216817
217243
217667
218100
218527
218957
219381
219814
220247
220664
221095
221515
221938
222363
222790
223226
223640
224079
224498
224918
225347
225779
226213
226636
227072
227514
227932
228360
228790
229212
229643
230073
230505
230942
231360
231779
232170
232574
232965
233358
233759
234158
234572
234971
235396
235818
236242
236668
237091
237521
237940
238374
238798
239224
239648
240076
240499
240912
241339
241749
242173
242589
243030
243455
243890
244329
244748
245182
245614
246041
246469
246894
247330
247750
248182
248610
249037
249463
249890
250320
250743
251167
251600
252025
252463
252888
253325
253743
254170
254587
255004
255433
255846
256265
256676
257080
257483
257868
258249
258620
258976
259334
259676
260014
260350
260684
261014
261319
261534
261890
262232
262570
262914
263259
263606
263963
264325
264688
265068
265456
265856
266266
266681
267115
267544
267981
268406
268841
269257
269687
270115
270533
270943
271338
271743
272107
272488
272863
273229
273613
273989
274388
274796
275211
275648
276076
276518
276951
277401
277829
278282
278712
279162
279594
280041
280474
280913
281352
281792
282233
282671
283116
283548
283991
284423
284859
285287
285716
286147
286556
286979
287383
287797
288203
288614
289036
289445
289873
290292
290728
291147
291577
291998
292432
292869
293298
293737
294157
294599
295019
295463
295893
296337
296766
297191
297623
298036
298462
298891
299310
299737
300156
300588
301011
301436
301858
302273
302690
303106
303522
303939
304356
304773
305185
305610
306027
306448
306870
307286
307705
308107
308524
308937
309370
309798
310231
310667
311088
311521
311943
312377
312811
313238
313675
314089
314529
314951
315380
315810
316226
316661
317085
317523
317952
318374
318801
319207
319626
320030
320450
320856
321285
321709
322124
322552
322984
323411
323844
324257
324679
325097
325521
325953
326367
326793
327206
327633
328060
328488
328906
329338
329777
330190
330619
331032
331458
331877
332292
332719
333129
333553
333965
334390
334814
335231
335662
336076
336499
336920
337329
337752
338165
338594
339014
339441
339878
340307
340744
341173
341607
342042
342476
342918
343340
343774
344197
344628
345051
345468
345892
346300
346724
347155
347569
348005
348418
348852
349269
349692
350111
350524
350955
351368
351800
352221
352646
353074
353486
353914
354328
354754
355175
355602
356027
356441
356871
357291
357710
358138
358555
358982
359409
359842
360270
360691
361132
361544
361967
362375
362801
363225
363648
364077
364464
364844
365218
365587
365956
366324
366695
367077
367466
367873
368307
368748
369199
369659
370098
370534
370976
371437
371874
372320
372759
373204
373639
374086
374530
374958
375394
375811
376234
376645
377062
377477
377876
378313
378734
379166
379610
380030
380470
380897
381347
381792
382222
382671
383118
383561
384018
384444
384881
385314
385765
386204
386655
387099
387539
387983
388422
388854
389288
389717
390153
390576
391010
391435
391867
392285
392710
393141
393553
393973
394394
394824
395243
395683
396107
396530
396955
397366
397784
398208
398629
399049
399455
399883
400312
400747
401193
401620
402060
402484
402930
403359
403807
404251
404684
405125
405549
405981
406398
406833
407257
407676
408099
408518
408942
409361
409790
410220
410638
411076
411508
411939
412370
412790
413220
413636
414056
414476
414885
415320
415738
416175
416595
417038
417478
417903
418345
418766
419198
419622
420050
420482
420896
421336
421754
422196
422626
423060
423486
423910
424337
424747
425170
425603
426022
426448
426867
427295
427712
428123
428548
428964
429380
429811
430226
430654
431061
431496
431923
432345
432784
433205
433642
434069
434510
434942
435374
435813
436229
436662
437082
437517
437938
438358
438781
439194
439615
440040
440462
440886
441299
441722
442138
442556
442986
443401
443833
444255
444692
445108
445541
445975
446407
446859
447286
447727
448147
448588
449019
449446
449879
450294
450727
451154
451591
452029
452459
452897
453320
453754
454193
454616
455041
455479
455913
456340
456778
457203
457633
458066
458481
458909
459326
459756
460183
460601
461033
461445
461864
462282
462688
463116
463532
463962
464398
464822
465254
465674
466101
466522
466953
467378
467797
468226
468651
469078
469506
469927
470349
470758
471182
471599
472020
472442
472856
473270
473676
474096
474519
474930
475362
475773
476201
476618
477061
477492
477912
478335
478745
479173
479594
480008
480432
480848
481271
481690
482106
482537
482958
483389
483824
484248
484675
485091
485524
485945
486384
486816
487247
487681
488098
488534
488943
489374
489793
490219
490644
491065
491491
491902
492333
492750
493163
493583
493993
494424
494839
495278
495708
496129
496559
496979
497404
497833
498254
498683
499103
499534
499960
500383
500816
501229
501645
502061
502480
502907
503313
503750
504163
504593
505018
505445
505870
506283
506720
507140
507565
507996
508417
508847
509264
509693
510116
510533
510957
511376
511799
512225
512640
513054
513463
513879
514301
514706
515134
515545
515966
516380
516810
517239
517658
518086
518499
518917
519331
519756
520175
520582
521014
521423
521854
522279
522705
523128
523550
523974
524392
524807
525236
525647
526068
526489
526903
527317
527721
528143
528559
528980
529405
529820
530238
530642
531061
531476
531886
532311
532719
533140
533543
533975
534393
534807
535236
535653
536080
536507
536923
537352
537768
538203
538620
539041
539464
539881
540300
540720
541146
541563
541974
542404
542820
543243
543660
544082
544497
544907
545339
545754
546175
546599
547013
547427
547854
548274
548714
549125
549562
549977
550411
550834
551268
551697
552116
552544
552952
553373
553793
554209
554619
555031
555454
555866
556288
556712
557133
557551
557969
558387
558793
559209
559628
560044
560464
560884
561302
561717
562132
562561
562971
563397
563811
564234
564644
565077
565500
565920
566350
566768
567192
567603
568026
568450
568876
569313
569728
570154
570559
570991
571418
571836
572266
572678
573104
573521
573945
574363
574774
575191
575590
576011
576423
576856
577265
577674
578077
578471
578867
579262
579660
580060
580469
580892
581320
581747
582186
582618
583052
583478
583910
584332
584748
585177
585596
586020
586457
586881
587310
587725
588153
588569
588998
589430
589848
590276
590690
591124
591547
591968
592394
592804
593230
593649
594077
594496
594917
595342
595751
596171
596594
597014
597438
597857
598281
598705
599128
599560
599974
600406
600821
601241
601659
602077
602502
602909
603341
603751
604170
604587
604999
605420
605819
606244
606657
607067
607488
607903
608328
608751
609168
609594
610003
610425
610857
611273
611704
612120
612540
612958
613372
613799
614210
614635
615056
615464
615890
616305
616731
617159
617582
618006
618413
618832
619253
619676
620110
620537
620973
621398
621824
622255
622666
623087
623514
623933
624363
624773
625203
625609
626033
626453
626858
627280
627692
628125
628550
628977
629406
629816
630245
630664
631098
631519
631954
632386
632803
633232
633655
634078
634496
634916
635337
635751
636177
636605
637017
637449
637861
638282
638694
639113
639538
639949
640370
640780
641189
641601
642010
642432
642836
643264
643682
644089
644505
644917
645336
645752
646162
646579
646985
647399
647817
648226
648650
649069
649496
649925
