67
369
674
980
1283
1587
1879
2175
2475
2766
3054
3364
3674
3978
4282
4580
4883
5171
5464
5762
6057
6351
6644
6929
7215
7506
7793
8082
8378
8664
8966
9266
9564
9875
10178
10480
10789
11029
11383
11687
11991
12293
12595
12898
13199
13497
13790
14071
14359
14638
14916
15209
15497
15789
16090
16393
16701
17005
17313
17622
17932
18243
18548
18854
19156
19458
19760
20055
20360
20655
20957
21266
21566
21868
22175
22474
22776
23076
23373
23667
23968
24272
24566
24863
25169
25473
25774
26078
26375
26674
26976
27278
27575
27873
28176
28469
28767
29060
29350
29648
29946
30240
30537
30830
31121
31412
31704
31986
32272
32560
32850
33140
33428
33656
33983
34290
34578
34864
35151
35385
35700
35993
36277
36563
36843
37131
37419
37706
37931
38259
38488
38850
39146
39428
39712
39994
40283
40520
40826
41126
41412
41707
41997
42286
42582
42876
43175
43472
43765
44061
44350
44642
44935
45230
45521
45809
46111
46405
46693
46991
47284
47568
47861
48147
48428
48713
49009
49295
49589
49880
50177
50475
50776
51080
51380
51683
51989
52292
52590
52895
53200
53502
53810
54116
54420
54728
55035
55336
55639
55949
56252
56554
56863
57158
57458
57758
58051
58350
58637
58933
59228
59522
59817
60110
60396
60686
60914
61234
61528
61824
62108
62398
62691
62975
63268
63560
63851
64143
64440
64954
65275
65575
65870
66159
66446
66746
67037
67327
67625
67921
68213
68516
68820
69375
69696
70008
70319
70614
70912
71208
71505
71752
72103
72341
72717
73038
73349
73663
73969
74267
74576
74877
75169
75459
75759
76057
76356
76657
76957
77256
77559
77863
78162
78461
78769
79075
79377
79679
79979
80282
80593
80841
81189
81491
81796
82091
82385
82679
82974
83268
83560
83855
84143
84427
84716
85004
85294
85585
85875
86162
86455
86753
87035
87321
87620
87905
88203
88495
88791
89098
89398
89702
89999
90300
90612
90924
91224
91530
91838
92147
92463
92779
93093
93418
93738
94056
94355
94667
94972
95284
95580
95872
96163
96450
96744
97038
97325
97618
97914
98208
98512
98810
99025
99354
99660
99952
100242
100535
100758
101077
101384
101671
101959
102253
102487
102822
103143
103669
103997
104297
104592
104895
105188
105466
105781
106076
106376
106668
106961
107268
107565
107858
108155
108450
108741
109014
109300
109576
109814
110121
110410
110694
110977
111265
111495
111823
112123
112425
112716
113008
113313
113603
113895
114195
114489
114786
115083
115380
115680
115977
116277
116580
116881
117177
117479
117779
118067
118362
118656
118949
119254
119550
119847
120145
120454
120755
121049
121358
121657
121959
122260
122555
122856
123140
123430
123731
124015
124310
124604
124894
125194
125474
125696
126043
126350
126650
126942
127155
127470
127706
128051
128285
128622
128853
129202
129502
129796
130000
130318
130615
130905
131193
131476
131748
132026
132306
132577
132845
133122
133394
133665
133943
134223
134493
134768
135046
135312
135581
135841
136106
136370
136636
136901
137166
137431
137694
137964
138234
138500
138756
139027
139292
139554
139821
140091
140353
140616
140889
141153
141418
141653
141941
142199
142462
142720
142978
143231
143487
143740
143996
144250
144502
144749
145002
145256
145504
145759
146012
146260
146504
146759
147013
147259
147502
147749
147995
148238
148483
148729
148972
149215
149460
149706
149952
150198
150443
150682
150927
151171
151414
151654
151900
152140
152377
152614
152863
153104
153343
153581
153829
154066
154307
154553
154803
155043
155291
155536
155785
156028
156274
156515
156757
157002
157247
157488
157735
157983
158173
158457
158715
158969
159223
159473
159727
159980
160229
160483
160740
160989
161237
161485
161673
161949
162202
162450
162698
162946
163198
163454
163707
163965
164224
164478
164743
165003
165260
165518
165783
165957
166214
166529
166805
167067
167333
167600
167870
168135
168401
168665
168922
169185
169445
169708
169964
170222
170474
170740
170997
171259
171511
171776
172035
172294
172560
172824
173079
173330
173595
173848
174106
174357
174616
174865
175124
175381
175644
175895
176155
176413
176662
176941
177201
177457
177717
177889
178197
178502
178769
179029
179286
179554
179782
180072
180270
180601
180863
181122
181388
181646
181903
182162
182407
182681
182945
183201
183458
183715
183974
184173
184479
184739
184996
185254
185520
185778
186031
186283
186471
186755
187010
187268
187526
187772
188023
188274
188526
188774
189024
189272
189520
189767
190019
190267
190514
190763
190944
191223
191480
191729
191977
192225
192477
192723
192969
193221
193446
193719
193973
194237
194496
194756
195018
195285
195547
195813
196077
196344
196610
196880
197150
197422
197691
197961
198230
198502
198772
199046
199324
199600
199791
200095
200379
200575
200891
201165
201442
201715
201995
202273
202553
202835
203115
203401
203685
203964
204247
204422
204808
205089
205375
205652
205925
206210
206491
206770
207049
207334
207611
207889
208170
208444
208723
208996
209275
209552
209830
210105
210383
210660
210934
211217
211489
211755
212023
212298
212567
212832
213104
213374
213643
213917
214197
214468
214744
215023
215303
215586
215862
216142
216422
216701
216981
217180
217486
217763
218041
218318
218593
218860
219137
219410
219682
219961
220237
220507
220782
221065
221331
221609
221883
222157
222426
222698
222973
223246
223521
223793
224067
224343
224617
224895
225166
225441
225715
226001
226272
226464
226767
227052
227324
227594
227866
228125
228396
228669
228946
229218
229494
229770
230046
230330
230602
230877
231154
231426
231699
231983
232255
232523
232803
233080
233361
233625
233905
234187
234464
234752
234950
235257
235535
235818
236097
236376
236650
236932
237216
237501
237789
238074
238361
238646
238944
239229
239424
239740
240025
240312
240529
240878
241173
241473
241777
242075
242384
242686
242996
243313
243618
243934
244242
244546
244863
245173
245473
245785
246091
246389
246692
246993
247287
247587
247889
248186
248480
248784
249097
249407
249721
250043
250362
250677
250998
251315
251628
251945
252252
252563
252872
253169
253370
253715
254020
254329
254644
254954
255277
255600
255916
256232
256549
256866
257183
257492
257805
258118
258430
258747
259057
259366
259682
259987
260291
260598
260899
261121
261481
261780
262084
262388
262593
262921
263216
263414
263733
263960
264290
264579
264862
265138
265425
265703
265979
266252
266534
266808
267083
267367
267642
267815
268179
268455
268720
268989
269217
269393
269511
269779
270050
270317
270586
270857
271122
271396
271666
271933
272194
272413
272712
272976
273246
273516
273777
273967
274271
274538
274806
275067
275339
275546
275853
276126
276398
276666
276932
277191
277460
277682
277974
278238
278496
278758
279014
279247
279535
279801
280068
280349
280617
280893
281168
281439
281717
282003
282289
282567
282853
283144
283432
283722
284005
284295
284582
284865
285154
285449
285732
286015
286313
286528
286837
287137
287433
287725
288017
288311
288600
288896
289193
289489
289792
290085
290382
290680
290975
291272
291562
291845
292070
292366
292649
292922
293206
293481
293758
294045
294330
294612
294898
295193
295478
295769
296057
296343
296640
296928
297222
297515
297805
298107
298402
298695
298993
299287
299580
300145
300468
300777
301088
301380
301667
301958
302242
302533
302822
303107
303395
303676
303960
304244
304523
304796
305077
305353
305576
306016
306322
306600
306885
307100
307394
307674
307952
308225
308496
308775
309048
309318
309535
309820
310099
310382
310656
311151
311455
311734
312016
312292
312559
312844
313117
313388
313666
313947
314159
314461
314762
315044
315332
315617
315902
316186
316470
316754
317033
317320
317603
317886
318174
318459
318751
319040
319333
319550
319919
320241
320550
320863
321161
321454
321755
322043
322330
322622
322906
323196
323493
323786
324078
324370
324665
324957
325247
325527
325820
326109
326402
326699
326986
327277
327567
327864
328154
328440
328731
329011
329301
329591
329876
330105
330543
330887
331195
331477
331771
332060
332341
332637
332920
333203
333491
333781
334069
334349
334640
334922
335207
335498
335784
336068
336353
336643
336928
337213
337492
337774
338062
338345
338632
338916
339191
339406
339706
339994
340263
340546
340821
341094
341377
341658
341930
342212
342497
342719
343153
343455
343734
344014
344286
344565
344838
345067
345370
345656
345863
346202
346488
346766
347044
347324
347601
347880
348161
348453
348730
349008
349293
349571
349855
350146
350434
350707
350935
351243
351531
351818
352094
352373
352649
352927
353212
353495
353770
354045
354286
354603
354895
355183
355458
355740
356026
356303
356581
356862
357142
357419
357704
357978
358260
358540
358817
359097
359278
359664
359948
360236
360517
360795
361077
361363
361647
361868
362183
362494
362796
363100
363396
363696
363991
364293
364589
364887
365188
365483
365775
366075
366634
366934
367243
367535
367828
368127
368415
368702
368992
369283
369570
369859
370148
370436
370725
371016
371309
371596
371878
372167
372453
372728
373006
373290
373567
373851
374143
374424
374709
375002
375293
375584
375874
376163
376448
376742
376957
377278
377579
377872
378168
378464
378747
379044
379576
379885
380188
380479
380772
381073
381358
381642
381933
382212
382498
382789
383079
383369
383666
383955
384260
384559
384856
385147
385444
385735
386030
386326
386613
386917
387211
387497
387797
388086
388374
388671
388965
389252
389536
389821
390106
390391
390681
390955
391236
391518
391804
392086
392372
392668
392957
393252
393541
393840
394135
394429
394736
395032
395324
395631
395931
396228
396521
396804
397096
397395
397691
397984
398272
398567
398860
399154
399365
399668
399976
400261
400565
400866
401161
401464
401775
402074
402368
402669
402961
403259
403561
403847
404137
404448
404750
405041
405342
405639
405936
406234
406529
406750
407067
407367
407676
407976
408268
408575
408871
409172
409481
410022
410336
410645
410954
411251
411554
411860
412164
412465
412768
413068
413370
413678
413979
414279
414585
414891
415193
415503
415801
416099
416410
416709
417003
417302
417597
417892
418191
418494
418790
419080
419381
419676
419962
420246
420543
420833
421118
421410
421696
421978
422264
422506
422814
423098
423388
423666
423946
424181
424482
424765
425038
425315
425588
425863
426136
426414
426697
426978
427272
427558
427841
428136
428423
428712
428996
429284
429567
429856
430145
430422
430651
430983
431279
431569
431854
432147
432440
432735
433032
433329
433625
433916
434222
434520
434814
435114
435410
435707
436010
436305
436597
436898
437202
437502
437807
438107
438409
438717
439019
439322
439624
439922
440227
440534
440822
441126
441426
441717
442025
442323
442610
442908
443207
443499
443786
444078
444363
444655
444950
445233
445521
445793
446087
446381
446665
446953
447237
447520
447726
448038
448326
448610
448911
449204
449494
449787
450082
450373
450672
450974
451269
451570
451874
452175
452484
452779
453085
453396
453701
454013
454323
454625
454940
455249
455556
455866
456176
456486
456804
457111
457422
457737
458050
458356
458656
458964
459269
459571
459881
460182
460476
460789
461089
461385
461691
461995
462296
462606
462913
463206
463507
463811
464100
464388
464690
464977
465271
465576
465867
466168
466471
466770
467070
467363
467665
467961
468251
468554
468847
469137
469436
469736
470030
470323
470630
470924
471224
471533
471832
472128
472436
472733
473035
473328
473626
473932
474233
474539
474846
475150
475463
475773
476081
476389
476700
477006
477321
477630
477935
478248
478563
478872
479180
479496
479805
480367
480685
480992
481291
481583
481875
482151
482439
482682
482995
483301
483601
483894
484198
484505
484801
485094
485400
485695
485990
486296
486592
486888
487185
487489
487789
488082
488388
488626
488984
489189
489575
489880
490195
490505
490810
491116
491427
491656
492022
492357
492679
492998
493319
493640
493951
494261
494570
494885
495199
495512
495824
496141
496462
496778
497004
497375
497707
497897
498348
498663
498976
499212
499575
499905
500230
500552
500874
501203
501524
501841
502162
502474
502783
503103
503330
503699
504039
504356
504676
505002
505315
505632
505945
506249
506564
506873
507099
507455
507761
508074
508385
508606
508948
509254
509558
509869
510092
510435
510741
511053
511358
511659
511964
512264
512486
512843
513150
513459
513687
514035
514351
514658
514888
515240
515557
515872
516182
516488
516804
517109
517409
517719
518026
518331
518648
518961
519268
519584
519898
520210
520521
520831
521142
521458
521778
522089
522402
522726
523039
523343
523655
523967
524275
524583
524891
525201
525509
525817
526121
526428
526738
527044
527358
527671
527973
528277
528587
528889
529191
529486
529793
530095
530392
530702
531006
531302
531614
531799
532206
532513
532813
533110
533408
533711
534011
534309
534616
534925
535227
535529
535839
536147
536454
536768
537073
537375
537686
537991
538289
538600
538909
539219
539536
539845
540161
540479
540791
541105
541412
541723
542037
542344
542657
542974
543279
543593
543904
544209
544524
544834
545138
545450
545755
546056
546370
546675
546979
547289
547592
547895
548199
548504
548809
549108
549415
549724
549942
550261
550573
550872
551182
551488
551787
552090
552399
552704
553002
553305
553604
553906
554207
554503
554800
555099
555392
555696
555989
556287
556592
556792
557084
557461
557773
558086
558395
558699
559004
559310
559606
559910
560220
560515
560815
561126
561429
561735
562034
562333
562629
562930
563229
563520
563802
564017
564334
564628
564920
565220
565517
565822
566136
566437
566741
567059
567369
567669
567977
568275
568576
568885
569184
569490
569802
570114
570432
570743
571056
571256
571669
571907
572289
572591
572903
573211
573513
573818
574124
574435
574746
575057
575365
575679
575993
576304
576612
576919
577228
577538
577849
578162
578468
578781
579089
579395
579699
580008
580307
580607
580912
581199
581496
581795
582079
582310
582623
582920
583207
583494
583781
584015
584323
584605
584888
585164
585422
585690
585951
586211
586471
586736
586989
587244
587501
587761
588008
588258
588504
588752
588995
589239
589485
589726
589966
590208
590449
590695
590938
591180
591417
591664
591910
592154
592400
592648
592894
593134
593379
593627
593869
594109
594350
594593
594832
595074
595321
595566
595808
596051
596298
596543
596786
597031
597273
597515
597757
598001
598243
598489
598735
598979
599221
599410
599689
599939
600182
600434
600681
600924
601173
601426
601670
601917
602166
602423
602665
602914
603160
603409
603657
603910
604162
604417
604666
604920
605173
605431
605682
605934
606182
606436
606685
606931
607186
607442
607693
607943
608203
608458
608713
608964
609223
609473
609727
609980
610237
610487
610743
610994
611252
611505
611761
612009
612207
612626
612891
613155
613414
613669
613919
614178
614432
614682
614931
615123
615398
615650
615906
616162
616356
616642
616898
617156
617412
617669
617922
618176
618429
618684
618937
619197
619449
619699
619946
620205
620454
620705
620953
621209
621458
621709
621965
622219
622462
622709
622956
623206
623451
623700
623946
624132
624416
624673
624926
625184
625438
625691
625947
626207
626466
626714
626972
627225
627413
627591
627847
628108
628356
628607
628866
629121
629374
629620
629875
630120
630372
630626
630884
631132
631386
631636
631893
632147
632403
632651
632908
633163
633418
633671
633929
634185
634434
634696
634956
635216
635470
635731
635991
636247
636508
636775
637029
637288
637480
637904
638174
638430
638686
638940
639199
639393
639675
639932
640186
640438
640633
640915
641172
641417
641675
641928
642176
642432
642691
642940
643193
643450
643714
643968
644225
644479
644734
644988
645250
645510
645768
646026
646250
646536
646798
647064
647315
647517
647802
648068
648330
648600
648792
649226
649429
649742
