164
514
874
1218
1570
1925
2284
2643
3013
3381
3741
4113
4464
4821
5188
5544
5902
6265
6626
6986
7343
7699
8049
8398
8749
9102
9452
9799
10160
10512
10859
11223
11578
11935
12296
12656
13023
13397
13766
14142
14516
14890
15268
15638
16009
16386
16747
17114
17481
17840
18190
18540
18888
19245
19600
19953
20322
20683
21050
21421
21780
22152
22520
22878
23241
23604
23961
24314
24660
25005
25363
25717
26069
26435
26792
27146
27512
27875
28240
28609
28972
29342
29716
30089
30458
30831
31200
31580
31949
32316
32689
33061
33422
33782
34149
34520
34887
35252
35624
35993
36357
36725
37092
37464
37840
38211
38585
38956
39315
39676
40030
40386
40744
41092
41440
41805
42161
42510
42866
43214
43569
43925
44281
44641
45007
45369
45717
46073
46426
46781
47128
47474
47820
48160
48495
48834
49176
49519
49871
50218
50568
50921
51258
51600
51942
52277
52604
52941
53279
53623
53983
54341
54700
55067
55425
55780
56143
56493
56843
57194
57543
57887
58231
58579
58928
59282
59626
59975
60325
60667
61008
61350
61693
62041
62384
62722
63061
63393
63732
64058
64387
64717
65050
65390
65731
66076
66422
66769
67113
67454
67796
68143
68479
68816
69168
69517
69857
70204
70553
70912
71279
71624
71979
72351
72716
73078
73453
73825
74200
74569
74928
75301
75669
76025
76391
76752
77111
77472
77822
78172
78527
78876
79221
79570
79916
80264
80615
80963
81312
81655
82001
82343
82690
83039
83391
83741
84085
84440
84786
85139
85490
85834
86171
86514
86854
87193
87539
87876
88219
88565
88912
89268
89626
89980
90341
90709
91069
91416
91771
92122
92466
92815
93160
93511
93870
94220
94570
94923
95281
95646
96008
96362
96730
97100
97465
97838
98201
98568
98940
99300
99665
100031
100395
100756
101122
101487
101861
102230
102602
102983
103359
103730
104103
104474
104843
105202
105565
105935
106293
106649
107010
107368
107725
108085
108442
108794
109153
109512
109865
110227
110589
110959
111324
111684
112057
112423
112788
113155
113523
113895
114264
114625
114995
115360
115713
116077
116427
116775
117135
117479
117825
118178
118522
118874
119234
119602
119978
120344
120713
121089
121462
121830
122197
122562
122924
123288
123646
124010
124383
124745
125094
125452
125802
126162
126522
126880
127254
127623
127993
128367
128727
129099
129480
129856
130222
130599
130971
131335
131695
132059
132428
132784
133139
133508
133868
134227
134593
134952
135314
135678
136040
136402
136763
137120
137474
137828
138176
138541
138898
139250
139613
139962
140307
140656
141003
141350
141698
142029
142356
142695
143024
143340
143663
143973
144280
144593
144900
145212
145530
145852
146180
146502
146828
147148
147469
147792
148106
148417
148737
149050
149359
149673
149991
150313
150638
150968
151305
151650
151990
152321
152660
152994
153338
153686
154032
154376
154724
155071
155413
155756
156093
156427
156769
157106
157443
157794
158139
158484
158834
159189
159548
159916
160271
160616
160970
161320
161658
162008
162357
162712
163065
163409
163747
164097
164440
164771
165115
165451
165792
166141
166486
166839
167200
167559
167907
168262
168617
168967
169319
169666
170023
170382
170738
171086
171439
171796
172154
172496
172840
173190
173527
173856
174190
174517
174856
175208
175553
175901
176262
176613
176954
177306
177648
177984
178322
178661
179009
179371
179729
180093
180459
180826
181184
181553
181915
182280
182640
182992
183343
183688
184035
184386
184731
185071
185421
185768
186112
186462
186814
187166
187529
187888
188242
188613
188975
189315
189665
190019
190377
190734
191084
191442
191800
192154
192505
192862
193223
193591
193945
194300
194665
195021
195369
195725
196077
196441
196803
197168
197537
197909
198272
198637
199002
199366
199733
200094
200457
200826
201193
201551
201917
202269
202623
202980
203340
203707
204075
204437
204809
205177
205541
205905
206265
206633
207001
207369
207726
208087
208447
208818
209181
209547
209925
210300
210675
211059
211435
211823
212206
212583
212971
213348
213720
214095
214475
214860
215235
215605
215979
216340
216700
217065
217424
217784
218159
218529
218901
219285
219661
220032
220410
220790
221173
221543
221918
222302
222681
223055
223431
223814
224198
224565
224930
225307
225669
226030
226399
226759
227129
227501
227866
228244
228620
228986
229362
229727
230095
230472
230839
231210
231584
231952
232322
232688
233046
233415
233771
234135
234506
234873
235234
235594
235952
236319
236683
237044
237407
237770
238129
238494
238859
239232
239606
239978
240357
240731
241108
241477
241850
242226
242590
242964
243341
243708
244084
244453
244818
245193
245565
245927
246282
246653
247014
247361
247723
248085
248443
248806
249157
249522
249885
250239
250599
250964
251327
251700
252054
252417
252782
253144
253497
253856
254213
254575
254934
255291
255653
256009
256367
256732
257092
257449
257810
258171
258539
258920
259293
259647
260015
260381
260752
261123
261476
261844
262211
262571
262943
263311
263686
264070
264445
264807
265183
265556
265918
266280
266648
267026
267400
267767
268153
268524
268892
269265
269641
270022
270396
270765
271133
271496
271847
272204
272564
272931
273299
273661
274034
274398
274768
275134
275493
275853
276221
276578
276933
277289
277629
277967
278321
278669
279025
279384
279739
280099
280456
280812
281161
281509
281861
282217
282569
282906
283252
283604
283960
284325
284689
285053
285422
285774
286136
286501
286864
287215
287571
287925
288288
288638
288987
289348
289701
290054
290413
290761
291125
291498
291864
292232
292601
292973
293330
293698
294060
294427
294788
295147
295517
295882
296235
296599
296958
297324
297690
298052
298417
298785
299153
299510
299882
300245
300616
300979
301339
301712
302073
302426
302786
303138
303489
303840
304188
304536
304891
305243
305593
305944
306296
306655
307008
307368
307728
308080
308432
308801
309168
309532
309902
310267
310631
311006
311377
311741
312106
312469
312835
313203
313573
313951
314321
314684
315050
315407
315773
316142
316505
316875
317241
317603
317968
318326
318695
319076
319449
319823
320202
320575
320941
321310
321675
322043
322398
322746
323117
323475
323825
324188
324547
324901
325258
325614
325971
326334
326694
327058
327415
327777
328143
328500
328850
329211
329561
329912
330268
330616
330971
331324
331683
332041
332406
332765
333120
333471
333832
334202
334562
334919
335286
335653
336005
336367
336724
337077
337439
337793
338147
338498
338851
339197
339549
339896
340240
340579
340928
341287
341638
341994
342348
342694
343047
343407
343767
344129
344503
344865
345210
345562
345905
346247
346593
346927
347257
347590
347940
348279
348622
348965
349319
349680
350047
350419
350800
351172
351551
351929
352313
352704
353089
353479
353867
354251
354624
354996
355372
355757
356122
356488
356871
357250
357624
357999
358368
358746
359121
359488
359872
360253
360620
360995
361371
361759
362134
362509
362886
363264
363635
364009
364261
364716
364908
365448
365827
366196
366552
366926
367296
367670
368048
368415
368790
369150
369514
369880
370237
370602
370967
371325
371685
372057
372417
372772
373131
373487
373848
374203
374556
374923
375284
375641
376001
376353
376710
377073
377429
377789
378154
378515
378873
379237
379595
379955
380311
380665
381026
381382
381738
382099
382458
382817
383187
383554
383918
384286
384645
384989
385332
385677
386031
386389
386739
387102
387475
387851
388224
388587
388958
389336
389698
390051
390420
390778
391131
391488
391845
392203
392560
392916
393275
393637
393996
394356
394718
395083
395453
395818
396188
396560
396933
397298
397658
398024
398391
398745
399105
399478
399840
400203
400574
400938
401303
401665
402027
402398
402767
403126
403481
403838
404198
404567
404933
405301
405671
406038
406396
406755
407114
407479
407844
408202
408579
408948
409314
409691
410060
410427
410800
411171
411544
411914
412287
412662
413032
413404
413783
414154
414532
414909
415278
415650
416022
416399
416784
417157
417539
417921
418301
418677
419041
419413
419787
420153
420517
420889
421260
421622
421991
422363
422736
423111
423485
423865
424238
424608
424980
425353
425733
426107
426482
426860
427235
427608
427981
428358
428734
429112
429486
429866
430240
430613
430990
431358
431738
432115
432485
432858
433237
433611
433982
434349
434720
435104
435482
435863
436249
436632
437012
437385
437762
438147
438526
438905
439292
439676
440055
440436
440806
441186
441555
441922
442298
442666
443025
443393
443759
444122
444484
444841
445210
445574
445930
446290
446639
446998
447365
447724
448087
448454
448815
449169
449530
449891
450251
450602
450953
451314
451666
452020
452388
452754
453121
453494
453867
454247
454620
454988
455360
455734
456110
456491
456866
457242
457617
457984
458352
458728
459101
459479
459853
460232
460610
460990
461364
461731
462103
462480
462850
463212
463584
463942
464302
464662
465024
465390
465762
466125
466494
466866
467232
467605
467967
468333
468706
469071
469434
469801
470166
470523
470882
471246
471614
471974
472328
472693
473043
473382
473740
474093
474459
474828
475193
475571
475956
476334
476715
477097
477483
477874
478255
478646
479041
479425
479806
480187
480568
480953
481319
481702
482084
482467
482837
483210
483588
483965
484336
484712
485099
485480
485852
486234
486616
487004
487370
487746
488123
488500
488871
489237
489592
489964
490327
490685
491058
491430
491801
492182
492560
492933
493305
493675
494055
494421
494794
495174
495545
495918
496296
496667
497039
497407
497763
498126
498485
498853
499226
499598
499975
500349
500714
501094
501476
501856
502243
502617
502997
503384
503766
504149
504534
504921
505304
505679
506060
506439
506820
507204
507580
507962
508338
508711
509088
509473
509856
510243
510625
511003
511379
511750
512127
512508
512886
513260
513640
514025
514403
514776
515146
515518
515877
516241
516606
516973
517342
517712
518063
518432
518799
519168
519546
519922
520299
520674
521043
521389
521742
522112
522479
522845
523215
523595
523972
524353
524732
525114
525493
525872
526249
526625
526992
527361
527737
528100
528455
528816
529184
529553
529919
530283
530652
531016
531346
531682
532013
532336
532668
532992
533311
533644
533973
534307
534645
534977
535305
535642
535976
536308
536652
536984
537320
537658
537993
538341
538695
539040
539380
539733
540077
540416
540765
541114
541466
541817
542169
542519
542879
543239
543594
543953
544309
544677
545035
545386
545742
546090
546442
546792
547141
547494
547847
548191
548537
548894
549244
549579
549920
550255
550585
550923
551251
551575
551907
552232
552551
552874
553195
553512
553834
554148
554457
554770
555088
555394
555696
556007
556311
556613
556918
557215
557507
557797
558092
558374
558652
558932
559210
559483
559759
560037
560308
560583
560858
561138
561411
561687
561958
562237
562512
562790
563072
563350
563629
563905
564190
564467
564745
565017
565292
565563
565830
566101
566368
566633
566894
567168
567432
567701
567966
568240
568510
568785
569063
569346
569621
569896
570178
570461
570745
571023
571314
571600
571885
572178
572467
572750
573035
573326
573605
573887
574164
574438
574715
574990
575268
575541
575815
576087
576370
576650
576926
577206
577485
577765
578045
578332
578610
578889
579172
579454
579736
580013
580292
580571
580848
581124
581406
581677
581950
582223
582497
582766
583029
583294
583558
583819
584081
584345
584606
584868
585124
585396
585653
585919
586177
586449
586716
586985
587257
587535
587809
588079
588361
588639
588917
589191
589480
589764
590052
590343
590633
590919
591205
591499
591779
592064
592340
592626
592914
593198
593495
593780
594072
594367
594667
594966
595253
596130
596430
596729
597029
597328
597639
597942
598241
598538
598839
599140
599449
599760
600058
600362
600680
600988
601293
601600
601906
602209
602522
602831
603138
603443
603765
604079
604385
604693
605004
605320
605640
605948
606261
606573
606889
607201
607507
607822
608123
608432
608741
609049
609361
609674
609990
610293
610591
610899
611198
611497
611803
612105
612406
612712
613015
613317
613610
613909
614204
614502
614802
615100
615393
615690
615998
616300
616597
616907
617208
617512
617821
618127
618433
618733
619046
619355
619658
619972
620277
620587
620901
621216
621526
621846
622163
622477
622782
623092
623396
623702
624005
624306
624609
624917
625226
625537
625844
626160
626472
626790
627104
627413
627715
628031
628342
628652
628964
629272
629583
629901
630213
630523
630828
631142
631450
631750
632052
632354
632659
632963
633271
633572
633872
634185
634486
634772
635052
635348
635637
635927
636218
636504
636792
637085
637377
637672
637956
638253
638544
638837
639137
639431
639730
640029
640333
640634
640929
641234
641536
641841
642151
642457
642764
643069
643382
643686
643980
644286
644584
644874
645173
645470
645756
646048
646349
646635
646933
647227
647518
647818
648113
648406
648705
648997
649288
649587
649878
