244
694
1120
1553
1990
2445
2886
3308
3745
4157
4595
5017
5458
5879
6328
6757
7201
7634
8073
8501
8937
9357
9794
10221
10662
11088
11518
11953
12387
12813
13237
13672
14101
14529
14982
15420
15866
16317
16769
17201
17651
18090
18539
18984
19417
19870
20319
20773
21223
21652
22094
22533
22989
23424
23899
24363
24816
25253
25690
26109
26541
26954
27397
27853
28279
28727
29140
29576
30023
30452
30889
31320
31756
32197
32643
33086
33518
33958
34398
34844
35267
35690
36128
36587
37034
37481
37935
38371
38827
39276
39718
40174
40638
41090
41518
41961
42381
42824
43249
43681
44111
44558
44976
45424
45863
46299
46747
47171
47609
48058
48493
48929
49348
49788
50212
50646
51075
51508
51952
52383
52828
53247
53667
54106
54535
54980
55395
55832
56276
56711
57145
57572
58018
58437
58875
59296
59723
60162
60588
61020
61432
61872
62301
62733
63154
63576
64009
64423
64868
65287
65713
66147
66581
67014
67445
67892
68322
68764
69200
69624
70071
70514
70946
71384
71831
72266
72717
73144
73577
74006
74434
74880
75306
75750
76202
76664
77103
77546
77991
78424
78874
79310
79769
80229
80679
81122
81561
82008
82444
82881
83318
83750
84197
84638
85084
85515
85949
86386
86823
87254
87688
88135
88578
89023
89459
89885
90322
90760
91179
91610
92052
92474
92925
93357
93778
94210
94639
95066
95469
95891
96300
96736
97144
97577
98002
98415
98831
99236
99637
100045
100435
100830
101207
101587
101953
102324
102694
103055
103414
103767
104127
104475
104829
105166
105503
105838
106176
106508
106852
107184
107530
107875
108171
108573
108934
109280
109475
109885
110247
110594
110956
111315
111683
112072
112464
112802
113162
113529
113896
114269
114639
115019
115393
115764
116156
116533
116920
117301
117687
118087
118477
118937
119337
119706
120092
120464
120855
121232
121619
122009
122395
122778
123151
123531
123922
124318
124707
125104
125474
125860
126240
126627
127013
127387
127777
128158
128539
128927
129310
129687
130067
130445
130828
131207
131590
131992
132375
132780
133157
133557
133943
134353
134746
135163
135563
135962
136371
136772
137175
137561
137955
138353
138750
139145
139528
139901
140300
140700
141105
141503
141898
142299
142686
143098
143492
143910
144314
144744
145152
145566
145963
146390
146796
147219
147615
148026
148415
148822
149210
149614
150009
150414
150844
151248
151649
152046
152444
152824
153208
153595
153989
154372
154770
155157
155563
155959
156370
156779
157176
157570
157982
158388
158797
159195
159593
160002
160348
160816
161236
161654
162070
162482
162892
163298
163697
164109
164504
164924
165327
165751
166180
166606
167028
167457
167859
168285
168693
169131
169535
169961
170368
170789
171191
171615
172019
172431
172832
173240
173636
174032
174427
174820
175219
175602
175998
176378
176766
177153
177555
177958
178376
178798
179207
179622
180038
180464
180896
181321
181734
182172
182589
183030
183459
183897
184323
184765
185197
185639
186067
186496
186911
187327
187744
188182
188601
189051
189479
189890
190317
190719
191123
191498
191888
192315
192708
193119
193515
193913
194300
194655
195046
195419
195784
196166
196531
196908
197279
197641
198025
198403
198767
199152
199532
199881
200244
200596
200964
201353
201749
202142
202548
202946
203346
203752
204156
204567
204974
205383
205796
206203
206615
207016
207415
207814
208219
208625
209024
209427
209819
210234
210632
211045
211435
211834
212234
212629
213022
213403
213800
214208
214605
215007
215406
215783
216190
216573
216986
217370
217764
218162
218552
218948
219336
219721
220483
220873
221264
221521
222007
222405
222813
223199
223586
223967
224364
224752
225156
225542
225936
226329
226731
227125
227517
227913
228309
228759
229171
229552
229956
230362
230751
231153
231532
231928
232321
232721
233118
233502
233892
234278
234679
235073
235472
235852
236259
236644
237056
237447
237847
238247
238652
239056
239457
239857
240273
240683
241095
241499
241916
242335
242754
243170
243581
244014
244443
244873
245282
245694
246114
246507
246911
247283
247678
248066
248452
248865
249245
249647
250047
250445
250853
251229
251627
252010
252401
252797
253177
253570
253971
254383
254775
255174
255555
255951
256339
256741
257140
257549
257949
258372
258787
259203
259607
260032
260427
260841
261233
261637
262045
262447
262856
263247
263646
264045
264447
264852
265257
265657
266076
266465
266881
267267
267669
268069
268467
268877
269283
269688
270095
270504
270912
271324
271717
272139
272542
272965
273364
273768
274177
274595
275020
275424
275835
276246
276656
277063
277468
277874
278284
278689
279101
279497
279902
280299
280705
281097
281490
281881
282299
282709
283121
283524
283930
284349
284758
285173
285573
285992
286397
286817
287217
287658
288090
288503
288913
289322
289720
290130
290531
290954
291365
291762
292191
292603
293033
293438
293838
294239
294660
295068
295490
295902
296722
297136
297552
297980
298374
298792
299186
299594
300007
300413
300847
301275
301701
302120
302541
302949
303359
303747
304149
304541
304937
305335
305727
306147
306544
306971
307370
307779
308193
308607
309024
309424
309831
310248
310673
311094
311500
311910
312315
312739
313143
313562
313974
314397
314818
315239
315645
316066
316487
316913
317336
317740
318176
318591
319021
319427
319856
320263
320692
321099
321519
321934
322349
322785
323191
323601
324035
324455
324877
325290
325701
326137
326556
326978
327397
327825
328235
328662
329061
329468
329882
330281
330694
331089
331485
331871
332278
332680
333079
333462
333849
334250
334680
335085
335507
335916
336331
336745
337159
337566
337931
338382
338822
339244
339688
340119
340544
340964
341380
341793
342208
342630
343031
343448
343863
344282
344699
345120
345542
345971
346369
346802
347208
347615
348032
348462
348870
349288
349697
350117
350538
350959
351370
351803
352216
352658
353095
353524
353952
354371
354795
355208
355614
356031
356447
356869
357294
357712
358131
358556
358958
359753
360163
360604
361016
361437
361858
362270
362686
363105
363518
363930
364325
364736
365135
365544
365962
366383
366800
367227
367645
368074
368491
368912
369327
369759
370180
370618
371032
371455
371882
372284
372717
373133
373535
373969
374404
374823
375231
375655
376480
376879
377711
378110
378958
379373
380186
380614
381021
381427
381797
382149
382512
382857
383219
383574
384136
384476
384970
385365
385781
386182
386631
387051
387467
387879
388303
388722
389138
389540
389970
390385
390821
391238
391708
392151
392593
393006
393427
393835
394254
394680
395106
395521
395951
396365
396783
397186
397600
398006
398431
398838
399246
399671
400072
400498
400897
401329
401761
402175
402609
403031
403459
403892
404330
404761
405189
405613
406036
406479
406894
407313
407736
408158
408590
409016
409452
409890
410329
410754
411202
411648
412072
412515
412943
413353
413782
414191
414632
415044
415468
415884
416314
416725
417152
417564
417979
418385
418795
419192
419606
420005
420419
420823
421221
421630
422037
422468
422890
423314
423737
424165
424593
425026
425445
425873
426307
426734
427149
427583
427992
428435
428846
429262
429673
430090
430497
430915
431309
431725
432131
432548
432934
433332
433740
434164
434572
434991
435403
435826
436249
436670
437081
437514
437916
438344
438749
439005
439479
439913
440354
440773
441193
441612
442037
442453
442865
443270
443696
444112
444547
444954
445378
445792
446222
446620
447042
447462
447884
448310
448727
449127
449558
449958
450384
450787
451191
451601
452006
452420
452819
453232
453645
454065
454476
454887
455294
455715
456131
456551
456966
457399
457811
458245
458655
459072
459483
459907
460338
460772
461195
461625
462050
462478
462893
463321
463721
464152
464568
464992
465419
465853
466281
466700
467110
467536
467968
468377
468795
469215
469629
470038
470452
470861
471276
471685
472100
472506
472910
473312
473706
474100
474466
474826
475175
475538
475911
476272
476637
477008
477381
477763
478146
478522
478922
479308
479693
480081
480473
480862
481263
481662
482078
482500
482905
483338
483742
484158
484546
484942
485328
485718
486107
486502
486882
487280
487662
488054
488455
488835
489245
489629
490044
490429
490830
491230
491618
492016
492407
492795
493182
493566
493962
494362
494755
495166
495560
495957
496370
496766
497183
497565
497969
498349
498742
499136
499525
499920
500306
500696
501081
501464
501847
502228
502601
502975
503351
503727
504110
504490
504870
505268
506047
506420
507168
507543
508331
508699
509043
509468
509861
510230
510611
510986
511372
511754
512138
512520
512915
513298
513695
514075
514452
514820
515207
515584
515976
516345
516727
517110
517494
517876
518256
518622
519006
519365
519752
520116
520499
520881
521268
521660
522040
522423
522798
523180
523565
523948
524327
524708
525097
525490
525880
526263
526638
527024
527391
527772
528139
528516
528907
529290
529681
530062
530445
530834
531217
531606
531982
532353
532727
533117
533503
533898
534279
534653
535038
535422
535811
536191
536551
536931
537290
537677
538041
538417
538784
539156
539534
539903
540255
540607
540981
541352
541717
542069
542426
542797
543149
543460
543825
544175
544531
544905
545267
545626
545969
546320
546680
547037
547401
547780
548160
548545
548949
549351
549752
550140
550539
550943
551363
551769
552175
552576
552988
553391
553788
554173
554569
554961
555362
555767
556149
556543
556928
557324
557716
558093
558481
558853
559233
559619
560002
560381
560769
561138
561525
561917
562301
562696
563072
563467
563848
564233
564628
565009
565792
566188
566594
566976
567372
567747
568135
568519
568905
569294
569678
570059
570428
570792
571146
571509
571863
572227
572624
573022
573432
573819
574197
574594
574965
575356
575715
576089
576465
576821
577191
577546
577911
578294
578677
579062
579430
579788
580166
580539
580904
581294
581663
582049
582425
582812
583202
583584
583950
584322
584680
585047
585418
585775
586128
586505
586868
587245
587608
587963
588325
588683
589056
589422
589806
590183
590573
590953
591334
591731
592110
592506
592878
593275
593646
594016
594392
594758
595130
595478
595851
596212
596567
596925
597267
597617
597946
598303
598649
599006
599223
599649
600021
600393
600739
601091
601410
601751
602100
602431
602784
603122
603467
603818
604180
604529
604881
605234
605587
605945
606307
606659
607028
607388
607738
608102
608452
608806
609161
609492
609835
610198
610543
610894
611236
611588
611924
612274
612609
612952
613291
613648
613989
614339
614683
615033
615381
615723
616077
616414
616622
617078
617440
617792
618135
618480
618835
619179
619514
619847
620196
620541
620898
621268
621626
621993
622365
622727
623098
623455
623827
624181
624534
624925
625289
625640
626020
626382
626753
627106
627472
627856
628237
628638
629050
629465
629896
630292
630712
631108
631506
631904
632292
632702
633079
633467
633872
634242
634634
635024
635405
635792
636155
636531
636899
637265
637635
638006
638363
638758
639126
639482
639848
640224
640602
640958
641323
641685
642048
642435
642801
643156
643529
643909
644271
644647
645030
645399
645767
646143
646541
646912
647294
647678
648045
648416
648787
649147
649511
649877
