100
432
661
863
1003
1271
1484
1720
1875
2102
2270
2385
2519
2661
2793
2934
3128
3334
3465
3714
3873
3993
4236
4525
4724
4859
5083
5248
5435
5650
5795
6031
6201
6434
6712
6944
7279
7588
7751
7883
8154
8313
8542
8876
9114
9295
9433
9672
9952
10169
10497
10830
11081
11343
11653
11858
12019
12277
12527
12756
12992
13199
13541
13778
14016
14290
14590
14787
14927
15243
15435
15630
15930
16055
16306
16599
16726
16880
16960
17275
17414
17650
17924
18231
18434
18642
18911
19117
19259
19394
19743
19879
20101
20295
20455
20583
20710
20898
21035
21159
21280
21409
21707
21846
21990
22141
22274
22389
22515
22650
22884
23263
23396
23642
23754
24074
24228
24362
24491
24726
24884
25004
25302
25426
25675
26001
26302
26591
26821
26974
27218
27519
27829
27957
28219
28452
28637
28862
29026
29342
29520
29785
30063
30280
30591
30762
31010
31250
31577
31851
32010
32244
32517
32729
32985
33114
33251
33407
33764
33895
34287
34457
34585
34724
34986
35120
35283
35533
35678
35793
35931
36079
36296
36498
36557
36921
37063
37296
37543
37769
37879
37985
38105
38396
38637
38872
38986
39143
39272
39471
39796
39928
40047
40262
40405
40705
40833
40885
41244
41378
41661
41815
42128
42438
42660
42916
43069
43403
43572
43702
43845
43990
44226
44459
44626
44759
44887
45035
45168
45292
45569
45708
45759
45998
46101
46337
46475
46735
46843
47064
47237
47363
47597
48030
48176
48403
48740
49063
49174
49422
49574
49704
49941
50123
50452
50748
51057
51172
51321
51657
51909
52181
52503
52937
53171
53357
53751
54134
54331
54473
54746
54925
55141
55424
55673
55810
55978
56231
56354
56521
56844
56989
57270
57527
57799
58087
58345
58580
58818
59054
59366
59633
59897
60104
60417
60613
60809
60968
61211
61496
61693
61907
62117
62281
62515
62786
63073
63257
63545
63748
63891
64012
64133
64353
64609
64854
65066
65341
65610
65877
66044
66211
66460
66691
66889
67062
67208
67492
67779
67955
68102
68381
68625
68874
69150
69404
69633
69888
70007
70261
70525
70743
70997
71121
71393
71620
71925
72092
72359
72520
72760
72961
73172
73393
73652
73828
74049
74213
74416
74769
74926
75154
75480
75752
75951
76109
76258
76509
76706
76992
77150
77268
77566
77716
78112
78253
78554
78818
78933
79286
79431
79797
80070
80307
80423
80578
80998
81125
81384
81644
81870
82131
82395
82669
82973
83173
83357
83686
83889
84050
84295
84564
84816
85108
85322
85454
85593
85834
86052
86293
86491
86813
87090
87322
87615
87869
88128
88378
88537
88788
89009
89238
89444
89662
89792
89930
90074
90307
90513
90783
91084
91386
91627
91903
92119
92276
92633
92772
93194
93431
93664
93957
94076
94250
94463
94671
94992
95283
95638
95815
95939
96257
96400
96747
96870
97039
97133
97395
97638
97930
98151
98412
98698
98852
98980
99114
99246
99663
99806
100167
100336
100429
100694
101119
101311
101523
101777
102048
102308
102629
102854
103108
103513
103644
104017
104205
104521
104704
105105
105245
105586
105822
106012
106260
106393
106650
106872
107105
107387
107653
107841
107974
108206
108475
108600
108766
108879
109000
109111
109378
109512
109631
109778
109919
110045
110153
110315
110454
110808
110941
111223
111384
111520
111742
111856
112139
112410
112749
112939
113259
113445
113684
113803
114100
114352
114604
114766
115035
115300
115474
115742
116011
116285
116447
116586
116732
117007
117280
117525
117734
117870
118013
118237
118379
118542
118764
119040
119300
119643
119918
120185
120364
120608
120857
121025
121272
121549
121714
121846
122076
122393
122512
122645
123039
123181
123463
123623
123757
123894
124026
124265
124447
124684
125016
125215
125356
125735
125912
126169
126398
126605
126912
127041
127238
127416
127650
127969
128195
128485
128724
128984
129099
129218
129464
129582
129853
130252
130501
130857
131107
131345
131758
132031
132364
132647
132969
133202
133555
133848
134075
134406
134627
134819
135057
135294
135616
135783
135903
136299
136449
136680
137044
137223
137355
137473
137698
137856
138004
138242
138389
138506
138772
139046
139191
139437
139637
139810
140039
140289
140570
140889
141168
141482
141705
142025
142311
142528
142799
143057
143234
143450
143604
143848
144124
144315
144537
144702
144930
145067
145320
145657
145917
146047
146169
146292
146439
146757
147026
147266
147495
147753
147878
148030
148132
148438
148566
148774
148916
149177
149326
149574
149856
150177
150385
150564
150698
150961
151210
151463
151803
152140
152326
152531
152774
153039
153325
153462
153617
153858
154123
154250
154384
154617
154866
155013
155263
155489
155881
156097
156443
156709
156950
157206
157363
157721
157868
158103
158358
158609
158866
158991
159144
159456
159595
159863
160201
160409
160685
160815
160957
161193
161324
161598
161757
161888
162033
162314
162534
162929
163064
163334
163487
163696
164028
164223
164470
164708
164941
165137
165276
165559
165700
165930
166229
166531
166897
167077
167422
167743
168009
168326
168630
169009
169152
169292
169425
169554
169807
169937
170231
170389
170634
170771
170893
171177
171318
171370
171640
171811
171965
172164
172460
172661
172796
172950
173082
173234
173564
173696
173852
174092
174343
174608
174873
175029
175221
175520
175727
175981
176224
176449
176775
177029
177255
177414
177676
177883
178033
178277
178430
178551
178799
178984
179234
179399
179527
179669
179806
180048
180185
180370
180577
180855
181036
181301
181529
181765
182113
182245
182607
182881
183131
183285
183407
183537
183839
183979
184232
184391
184699
184829
185061
185330
185655
185809
186126
186538
186709
186961
187159
187425
187598
187848
188155
188437
188892
189288
189471
189726
189864
190013
190272
190592
190828
191083
191299
191442
191593
191960
192306
192562
192688
192923
193305
193491
193619
193887
194115
194262
194405
194539
194670
194875
195147
195303
195552
195799
195987
196194
196422
196571
196700
196981
197105
197359
197624
197875
198015
198154
198285
198524
198651
198816
199019
199135
200020
200256
200519
200777
200977
201185
201454
201658
201836
202007
202312
202511
202721
202873
203015
203210
203406
203623
203844
204033
204201
204447
204565
204762
205034
205268
205518
205750
206007
206162
206401
206525
206767
206937
207178
207344
207490
207790
207936
208198
208548
208806
209038
209281
209509
209679
210163
210849
211201
211328
211714
211856
212197
212393
212612
212752
212874
213178
213314
213608
213736
213876
214150
214441
214711
214950
215261
215384
215644
216035
216174
216430
216654
216798
216996
217109
217479
217724
217953
218192
218419
218584
218819
218978
219199
219450
219570
219860
220111
220373
220614
220738
220884
221020
221208
221430
221588
221804
222072
222246
222509
222782
222938
223060
223101
223345
223474
223698
223891
224091
224338
224551
224745
224988
225215
225637
225769
225819
226145
226389
226495
226644
226790
226924
227191
227381
227539
227820
227970
228194
228298
228559
228836
229096
229255
229438
229587
229834
230058
230346
230492
230746
230862
231095
231232
231475
231676
231997
232203
232489
232800
232957
233196
233429
233645
233803
234038
234159
234304
234435
234692
234817
235111
235304
235555
235802
236095
236211
236341
236431
236705
236988
237258
237451
237659
237897
238187
238387
238526
238759
239046
239282
239461
239662
239932
240191
240309
240524
240754
240871
241165
241401
241689
241946
242262
242630
242900
243176
243424
243620
243760
243888
244132
244314
244626
244899
245120
245357
245611
245775
246071
246281
246442
246670
246823
247023
247237
247491
247612
247913
248131
248279
248427
248735
248987
249127
249359
249505
249735
249958
250190
250359
250517
250706
250856
250989
251171
251327
251468
251675
251779
251993
252240
252433
252581
252714
252952
253092
253297
253495
253752
253982
254117
254251
254515
254847
254997
255268
255530
255675
255871
256094
256334
256627
256795
257033
257192
257437
257561
257867
258001
258095
258309
258518
258625
258874
259022
259287
259498
259702
259849
260038
260235
260402
260589
260847
261000
261215
261369
261505
261750
262060
262206
262266
262463
262675
262828
263042
263251
263520
263742
263991
264144
264383
264579
264795
264988
265145
265277
265406
265583
265853
266097
266328
266548
266810
266920
267137
267298
267524
267634
267911
268118
268383
268533
268839
269093
269202
269348
269681
269884
270058
270280
270475
270675
270815
271116
271374
271515
271625
271860
272014
272214
272514
272788
272904
273030
273142
273292
273532
273706
273954
274064
274314
274574
274791
274991
275061
275231
275340
275452
275604
275754
275879
276151
276283
276498
276674
276888
277054
277246
277456
277675
277889
278028
278141
278275
278501
278739
278885
279008
279287
279431
279735
279910
280134
280408
280640
280935
281119
281370
281487
281733
281970
282201
282374
282509
282660
282824
283069
283239
283460
283616
283734
283867
284109
284333
284600
284862
285009
285136
285315
285492
285626
285755
285960
286106
286309
286552
286653
286801
287010
287113
287240
287484
287818
287932
288057
288306
288475
288742
288961
289082
289355
289514
289711
289999
290145
290380
290556
290725
291051
291166
291441
291748
291959
292139
292457
292633
292756
292862
293006
293280
293391
293608
293727
293937
294049
294201
294538
294661
294922
295136
295402
295549
295737
295989
296169
296310
296434
296559
296840
296988
297231
297447
297657
297919
298175
298413
298562
298683
298801
299047
299292
299460
299618
299830
300121
300278
300498
300763
300970
301135
301356
301500
301627
301747
301895
302147
302293
302432
302653
302807
303169
303292
303523
303739
303872
304029
304227
304496
304699
304841
305025
305159
305382
305736
305985
306273
306615
306855
307030
307298
307413
307751
307988
308091
308416
308586
308815
309135
309471
309837
309997
310130
310258
310487
310749
311053
311299
311533
311820
312026
312235
312427
312620
312895
313013
313161
313280
313412
313613
313896
314119
314277
314409
314522
314645
314829
315086
315324
315480
315692
315904
316040
316154
316264
316480
316602
316848
317075
317221
317480
317725
317834
318015
318173
318416
318608
318756
319010
319225
319446
319667
319813
320072
320298
320433
320775
320892
321221
321421
321666
321892
322037
322168
322306
322446
322584
322902
323024
323235
323415
323582
323755
323899
324015
324275
324537
324704
324838
325045
325283
325437
325541
325671
325975
326239
326391
326573
326681
326941
327174
327409
327642
327795
327941
328161
328360
328671
328915
329167
329298
329453
329585
329732
329966
330098
330472
330694
330972
331220
331413
331594
331773
331906
332119
332357
332625
332748
332901
333030
333171
333365
333664
333810
333929
334190
334456
334725
334880
335146
335404
335567
335739
335995
336180
336309
336540
336681
336916
337174
337465
337685
337954
338300
338521
338720
338983
339349
339591
339893
340013
340176
340296
340627
340761
341068
341410
341693
341993
342282
342497
342725
342882
343117
343313
343616
343890
344106
344248
344373
344510
344738
344904
345132
345491
345781
345967
346266
346541
346884
347098
347248
347372
347501
347642
347926
348067
348307
348451
348714
348913
349131
349362
349649
349881
350187
350412
350558
350668
350911
351039
351266
351507
351869
352169
352365
352701
353014
353313
353513
353786
354094
354378
354628
354885
355198
355471
355700
355834
356139
356273
356418
356683
356953
357326
357755
357878
357975
358360
358591
358734
358869
359201
359344
359680
359931
360317
360555
360693
361027
361320
361668
361893
362121
362380
362548
362776
363015
363127
363288
363434
363583
363726
363970
364159
364350
364503
364744
364925
365203
365404
365743
365885
366239
366469
366680
367035
367320
367462
367584
367747
367990
368160
368335
368492
368833
368963
369216
369473
369707
369923
370186
370412
370760
370907
371147
371330
371571
371781
371935
372071
372298
372415
372793
372928
373115
373286
373649
373788
373974
374111
374246
374611
374736
375143
375538
375801
376042
376377
376626
376944
377215
377360
377561
377826
378061
378440
378582
378754
378975
379202
379450
379598
379827
380081
380331
380482
380910
381044
381335
381587
381809
381962
382248
382552
382871
383280
383465
383597
383827
383947
384315
384457
384749
385056
385220
385343
385563
385946
386115
386336
386601
386878
387009
387278
387446
387695
387803
388147
388271
388584
388915
389290
389679
389936
390159
390438
390791
390934
391335
391654
391996
392185
392375
392762
393000
393270
393401
393731
393904
394138
394371
394512
394703
394981
395186
395446
395788
396029
396262
396529
396821
396978
397092
397327
397642
397968
398309
398484
398783
399027
399318
399591
399874
400045
400335
400529
400718
400907
401040
401233
401537
401765
402059
402274
402661
402985
403179
403311
403455
403675
403792
403945
404078
404349
404602
404829
404974
405242
405404
405524
405641
405768
405955
406107
406473
406613
406931
407195
407422
407655
407961
408097
408203
408267
408489
408676
408884
409017
409136
409255
409395
409510
409772
409891
410066
410189
410457
410595
410955
411097
411332
411567
411860
412130
412517
412790
412936
413251
413377
413614
413917
414041
414566
414710
414944
415064
415236
415349
415445
415801
415937
416143
416340
416471
416633
416890
417006
417176
417380
417685
417882
418300
418430
418788
418962
419228
419400
419650
419880
420025
420274
420479
420702
421013
421186
421316
421627
421883
422136
422391
422505
422743
422975
423288
423419
423717
424076
424343
424583
424741
424928
425227
425599
425797
426010
426161
426279
426419
426690
426870
427178
427444
427693
427907
428128
428277
428403
428547
428681
428842
429035
429313
429602
429847
430036
430353
430625
430777
431086
431302
431447
431575
431842
432012
432328
432628
432888
433006
433142
433295
433516
433781
433969
434181
434351
434560
434803
435084
435278
435505
435775
435991
436255
436602
436776
436903
437107
437346
437460
437615
437761
437894
438029
438168
438434
438575
438800
439050
439236
439372
439707
439835
440088
440343
440650
440889
441106
441418
441723
441996
442191
442478
442816
443108
443413
443570
443695
444043
444170
444354
444525
444785
445201
445621
445916
446214
446479
446733
446996
447183
447326
447463
447864
448003
448369
448592
448942
449217
449368
449671
449985
450256
450519
450799
451082
451233
451361
451612
451778
452044
452373
452619
452759
453118
453266
453595
453836
454071
454479
454844
455038
455164
455388
455619
455833
455990
456276
456491
456735
456887
456954
457117
457354
457468
457723
457947
458182
458345
458469
458580
458707
458848
459059
459225
459431
459693
459856
460077
460246
460427
460579
460834
461088
461389
461691
461872
462020
462153
462280
462436
462659
462900
463039
463167
463354
463796
463929
464164
464368
464675
464936
465187
465454
465616
465961
466130
466449
466764
467093
467225
467433
467633
467929
468080
468399
468734
469007
469255
469534
469787
470048
470213
470504
470676
470798
470944
471288
471431
471797
471957
472169
472522
472799
473159
473433
473646
473786
474003
474383
474801
475048
475356
475593
475829
476212
476457
476604
476909
477268
477561
477721
477802
478199
478325
478643
479023
479372
479670
479951
480199
480450
480601
480898
481142
481444
481694
481899
482052
482183
482413
482600
482863
483123
483320
483505
483651
483866
484157
484361
484497
484631
484860
484966
485212
485379
485662
485908
486181
486312
486666
486959
487186
487415
487703
487964
488319
488457
488843
489020
489295
489475
489688
489865
490089
490300
490447
490729
490905
491132
491396
491665
491990
492246
492531
492746
493015
493256
493527
493681
493921
494324
494624
494854
495166
495387
495682
495915
496203
496476
496729
497065
497269
497452
497726
497968
498165
498410
498616
498867
499134
499369
499686
499857
500096
500302
500470
500718
501033
501332
501463
501569
501825
502053
502251
502522
502830
503057
503264
503473
503774
504013
504319
504535
504711
504953
505167
505383
505533
505676
505843
506060
506318
506532
506674
506814
507085
507240
507469
507705
507864
508080
508337
508612
508757
508994
509145
509247
509363
509699
509832
510098
510229
510498
510711
510846
511110
511245
511401
511655
511818
511994
512217
512335
512482
512751
512983
513271
513393
513665
513814
513944
514139
514659
514828
515080
515294
515592
515911
516035
516205
516442
516732
517062
517220
517495
517623
517886
518080
518301
518421
518585
518835
518989
519181
519400
519618
519865
520032
520190
520321
520559
520852
521111
521296
521517
521766
521911
522217
522358
522508
522756
522917
523246
523509
523763
524058
524375
524626
524776
525086
525332
525602
525907
526101
526303
526446
526561
526813
527093
527425
527826
528075
528485
528834
529015
529284
529611
529845
529986
530198
530492
530733
530882
531024
531155
531390
531619
531988
532197
532421
532667
532863
533183
533480
533903
534212
534658
534983
535182
535352
535593
535895
536997
537207
537325
537432
537658
537999
538228
538563
538793
539005
539129
539538
539831
539990
540396
540659
540921
541099
541253
541469
541745
542032
542329
542621
542786
543032
543270
543570
543806
544031
544308
544538
544689
544943
545204
545500
545754
545904
546042
546145
546378
546540
546829
547006
547163
547403
547557
547933
548067
548526
548948
549111
549357
549579
549689
550002
550260
550495
550726
550987
551273
551438
551751
551975
552227
552477
552600
552804
552971
553241
553503
553718
553860
554056
554197
554424
554657
554863
555119
555352
555650
555933
556212
556406
556642
556837
557079
557318
557526
557764
557992
558244
558363
558510
558624
558840
558963
559455
559605
559655
559964
560201
560434
560693
560812
561097
561307
561483
561826
562141
562353
562497
562752
562929
563076
563368
563561
563850
563980
564248
564459
564819
564996
565163
565373
565575
565825
566115
566424
566585
566864
567039
567403
567605
567864
568106
568386
568519
568919
569053
569383
569818
570400
570528
570764
571068
571194
571405
571705
572068
572274
572470
572704
572985
573223
573340
573465
574243
574388
574638
574905
575465
575619
575854
576093
576408
576537
576791
577000
577293
577418
577649
577873
577984
578086
578213
578331
578456
578579
578701
578859
578979
579134
579264
579384
579532
579670
579907
580212
580375
580488
581106
581252
581504
581638
581841
581960
582222
582449
582758
582973
583153
583303
583529
583815
584122
584424
584636
584869
585020
585361
585536
585845
586020
586291
586516
586906
587132
587381
587677
587885
588034
588299
588554
588769
589340
589664
589800
589927
590066
590307
590625
590771
591055
591315
591591
591865
592152
592448
592652
592866
593155
593371
593511
593768
594049
594293
594607
594888
595136
595386
595640
595878
596162
596506
596640
596774
597017
597160
597379
597640
597811
598084
598264
598490
598780
599024
599260
599383
599752
599871
600204
600498
600663
600909
601190
601609
601720
601947
602161
602427
602743
602901
603023
603151
603277
603528
603657
603760
604418
604683
605337
605673
605858
606210
606446
606640
606775
606971
607143
607459
607741
607863
608066
608259
608506
608781
609046
609272
609533
609857
610183
610519
610650
610746
610870
611000
611221
611466
611757
612011
612160
612366
612802
613084
613394
613675
614033
614444
614720
614949
615201
615476
615780
615950
616219
616449
616837
617060
617349
617585
617861
618196
618519
618747
618989
619107
619242
619498
619657
619797
620022
620144
620278
620516
620924
621203
621726
621979
622258
622386
622587
622708
623391
623598
623816
623934
624206
624339
624595
624730
625012
625312
625533
625845
626100
626247
626596
626931
627067
627420
627957
628202
628362
628628
628952
629261
629473
629730
629882
630027
630165
630289
630517
630802
631072
631302
631763
631996
632269
632494
632642
632769
632987
633268
633503
633650
633805
634085
634268
634518
634831
635038
635320
635456
635776
635974
636116
636233
636453
636720
637097
637475
637743
637980
638098
638339
638591
638852
639138
639408
639559
639860
640051
640201
640532
640771
640928
641048
641303
641505
641707
641973
642221
642430
642729
643051
643366
643614
643850
644002
644144
644270
644531
644663
644894
645050
645242
645415
645639
645916
646068
646223
646478
646632
646879
647141
647440
647683
648057
648301
648671
649018
649238
649448
649777
