47
212
484
696
1182
1861
2072
2559
2751
2934
3202
3419
3609
3887
4096
4274
4566
4764
4948
5197
5413
5573
5900
6107
6312
6580
6777
6943
7170
7350
7547
7751
7951
8148
8319
8531
8727
8924
9090
9295
9473
9651
9826
10035
10231
10422
10601
10790
10974
11156
11330
11527
11698
11889
12058
12274
12472
12681
12895
13100
13291
13486
13671
13851
14047
14249
14450
14625
14845
15036
15232
15432
15628
15831
16034
16241
16678
16900
17096
17313
17516
17714
17917
18111
18307
18520
18728
18931
19095
19334
19539
19724
19920
20106
20291
20457
20721
20933
21106
21360
21561
21735
21949
22149
22340
22497
22738
22945
23132
23384
23591
23792
24003
24206
24408
24573
24856
25067
25240
25514
25717
25878
26122
26322
26510
26724
26917
27123
27398
27633
27856
28015
28315
28515
28675
28964
29169
29350
29579
29781
29985
30191
30400
30606
30766
31064
31252
31440
31703
31914
32080
32318
32517
32718
32927
33131
33318
33522
33738
33956
34130
34406
34612
34774
35022
35224
35389
35633
35842
36038
36248
36453
36650
36818
37046
37240
37431
37612
37810
38040
38535
38729
38900
39187
39381
39556
39791
40008
40189
40511
40726
40904
41236
41424
41596
41905
42102
42285
42570
42784
42949
43246
43455
43630
43909
44098
44265
44539
44755
44929
45226
45431
45602
45856
46065
46218
46491
46702
46871
47148
47349
47513
47770
47972
48134
48374
48579
48754
49021
49240
49415
49656
49865
50049
50323
50527
50679
51008
51212
51395
51709
51915
52085
52332
52541
52689
52978
53198
53373
53637
53836
54003
54260
54464
54641
54865
55084
55274
55570
55802
55956
56267
56461
56631
56932
57126
57302
57554
57772
57940
58231
58447
58612
58878
59075
59225
59505
59715
59885
60150
60352
60521
60764
60972
61162
61406
61620
61788
62098
62322
62487
62750
62954
63118
63365
63563
63758
63981
64192
64400
64574
64855
65057
65218
65450
65635
65823
66018
66219
66419
66599
66793
66977
67169
67335
67561
67748
67932
68134
68343
68555
68722
68980
69193
69352
69618
69816
69967
70231
70444
70611
70883
71087
71248
71511
71715
71874
72127
72321
72488
72756
72970
73136
73378
73580
73993
74194
74597
74805
74973
75212
76011
76205
76401
76591
76795
76967
77241
77453
77612
77870
78074
78237
78465
78647
78841
79043
79263
79476
79642
79932
80130
80287
80526
80724
80908
81109
81311
81510
81680
81895
82080
82276
82443
82648
82831
83006
83173
83401
83607
83805
84003
84196
84397
84560
84815
85013
85171
85402
85607
85811
86018
86226
86436
86596
86885
87080
87233
87489
87695
87868
88108
88310
88499
88715
88930
89132
89367
89566
89723
89997
90212
90377
90632
90835
91008
91225
91427
91631
91845
92055
92273
92453
92724
92931
93093
93349
93544
93699
93925
94132
94329
94538
94734
94933
95100
95358
95559
95718
95951
96154
96341
96573
96789
97000
97166
97464
97659
97818
98104
98309
98482
98749
98955
99116
99355
99561
99742
99965
100163
100338
100569
100788
100981
101249
101455
101614
101871
102080
102242
102488
102689
102868
103093
103293
103497
103665
103933
104133
104290
104533
104741
104946
105166
105375
105589
105744
106048
106252
106406
106662
106857
107018
107262
107474
107685
107897
108114
108318
108482
108765
108958
109127
109440
109649
109817
110066
110278
110446
110680
110880
111048
111310
111532
111697
111978
112185
112346
112600
112806
112980
113202
113403
113594
113846
114058
114262
114494
114707
114896
115118
115315
115526
115748
115977
116192
116412
116628
116844
117065
117283
117447
117694
117910
118109
118350
118554
118753
118955
119156
119353
119514
119771
119985
120150
120410
120613
120805
121009
121198
121384
121547
121755
121944
122138
122318
122546
122741
122936
123100
123335
123536
123725
123922
124101
124299
124469
124697
124901
125100
125266
125489
125677
125863
126052
126241
126429
126621
126816
127009
127202
127368
127572
127754
127942
128108
128304
128493
128697
128872
129112
129312
129495
129686
129874
130057
130243
130428
130612
130799
130979
131178
131371
131566
131738
131939
132111
132290
132462
132631
132809
132991
133181
133366
133563
133754
133964
134159
134346
134530
134710
134891
135084
135284
135475
135717
135931
136109
136346
136550
136750
136993
137205
137407
137678
137908
138067
138387
138850
139050
139244
139414
139706
139922
140117
140341
140554
140755
140921
141200
141633
141844
142061
142233
142506
142919
143118
143317
143479
143742
143965
144187
144357
144652
144873
145037
145323
145522
145672
145945
146158
146371
146547
146826
147036
147232
147457
147677
147884
148062
148373
148596
148763
149049
149266
149424
149677
149870
150064
150312
150530
150751
150946
151274
151474
151738
151960
152162
152351
152668
152895
153085
153363
153570
153730
154016
154216
154386
154706
154928
155111
155398
155619
155789
156063
156265
156412
156695
156925
157103
157413
157628
157786
158081
158297
158453
158737
158952
159127
159447
159667
159845
160140
160351
160510
160804
161027
161211
161508
161724
161888
162168
162381
162540
162833
163042
163219
163535
163758
163931
164208
164417
164578
164851
165049
165214
165465
165675
165884
166104
166337
166557
166754
167061
167254
167434
167804
168020
168216
168519
168729
168905
169222
169414
169602
169929
170144
170346
170660
170865
171050
171349
171554
171734
172045
172262
172448
172755
172965
173158
173462
173652
173850
174140
174366
174539
174822
175037
175201
175505
175708
175877
176199
176406
176601
176896
177107
177280
177567
177768
177932
178251
178471
178648
178976
179172
179353
179642
179850
180016
180308
180515
180697
181049
181258
181427
181756
181957
182127
182473
182673
182869
183215
183415
183590
183915
184114
184280
184577
184784
184989
185307
185508
185686
185981
186185
186347
186644
186847
187024
187365
187579
187752
188049
188250
188412
188686
188888
189069
189396
189611
189771
190099
190313
190475
190773
190968
191135
191420
191644
191812
192103
192316
192484
192795
192998
193152
193471
193685
193862
194155
194370
194551
194845
195042
195212
195508
195728
195893
196174
196379
196544
196782
196981
197168
197359
197541
197747
197923
198258
198466
198634
198959
199156
199324
199593
199803
199979
200291
200500
200686
201010
201211
201369
201684
201881
202059
202360
202580
202751
203027
203235
203401
203693
203891
204061
204361
204582
204752
205039
205257
205420
205702
205903
206071
206387
206602
206784
207078
207290
207459
207738
207945
208109
208373
208588
208762
209065
209281
209449
209755
209957
210134
210408
210621
210794
211086
211304
211481
211773
211983
212145
212423
212622
212795
213098
213317
213492
213772
213985
214159
214451
214655
214807
215103
215322
215501
215783
215994
216154
216416
216623
216789
217070
217289
217457
217751
217963
218125
218410
218617
218777
219039
219250
219423
219719
219938
220097
220365
220575
220730
221003
221203
221362
221637
221848
222017
222282
222491
222661
222926
223131
223294
223567
223782
223956
224225
224428
224674
224960
225158
225314
225618
225829
225994
226245
226443
226637
226826
227013
227194
227378
227567
227745
227940
228138
228348
228566
228775
228951
229228
229432
229595
229840
230052
230227
230495
230707
230907
231119
231329
231540
231712
231979
232184
232382
232607
232821
233027
233225
233426
233630
233794
234048
234256
234436
234710
234934
235107
235401
235619
235777
236036
236236
236392
236646
236870
237084
237345
237563
237724
238043
238250
238413
238692
238906
239078
239357
239573
239741
240013
240223
240378
240647
240864
241036
241322
241534
241700
241955
242166
242327
242596
242794
242956
243253
243479
243654
243931
244136
244298
244577
244780
244941
245232
245449
245621
245900
246116
246286
246559
246756
246922
247182
247390
247560
247832
248044
248208
248466
248678
248844
249104
249299
249457
249725
249942
250112
250422
250635
250802
251065
251269
251424
251692
251910
252075
252373
252582
252754
253048
253254
253417
253679
253895
254073
254379
254600
254764
255048
255257
255418
255697
255901
256070
256373
256594
256784
257083
257295
257468
257737
257938
258111
258430
258652
258845
259128
259344
259519
259791
259999
260147
260446
260668
260845
261141
261354
261521
261802
262014
262178
262457
262677
262844
263147
263358
263529
263819
264029
264193
264480
264699
264878
265215
265420
265602
265884
266090
266255
266547
266765
266925
267258
267476
267656
267949
268155
268321
268610
268816
268987
269291
269514
269679
269974
270196
270366
270659
270858
271025
271324
271553
271727
272030
272244
272413
272717
272926
273098
273396
273618
273796
274093
274309
274489
274773
274979
275143
275418
275639
275807
276096
276312
276484
276784
276991
277168
277435
277648
277816
278118
278341
278514
278806
279011
279179
279454
279662
279826
280149
280358
280545
280855
281058
281234
281502
281699
281860
282149
282374
282551
282860
283062
283244
283544
283744
283901
284183
284404
284572
284861
285080
285241
285521
285726
285890
286177
286395
286570
286852
287069
287227
287503
287719
287871
288164
288364
288559
288880
289089
289263
289532
289740
289896
290171
290378
290551
290851
291068
291242
291536
291748
291906
292175
292379
292533
292816
293038
293207
293488
293696
293858
294153
294357
294524
294798
295011
295181
295470
295689
295850
296133
296334
296501
296782
296990
297164
297452
297667
297833
298119
298331
298501
298789
298985
299154
299465
299685
299857
300131
300340
300507
300789
300995
301154
301426
301638
301812
302081
302296
302463
302757
302965
303135
303409
303626
303800
304089
304303
304467
304779
304986
305155
305416
305626
305795
306109
306338
306518
306822
307025
307204
307493
307696
307863
308162
308385
308560
308861
309081
309247
309529
309729
309897
310208
310431
310605
310899
311116
311281
311571
311783
311934
312214
312435
312612
312911
313123
313286
313548
313758
313917
314170
314399
314592
314863
315082
315261
315592
315812
315962
316272
316479
316653
316911
317120
317315
317507
317701
317905
318116
318316
318517
318737
318909
319203
319421
319583
319823
320018
320205
320377
320629
320849
321061
321270
321477
321686
321854
322084
322280
322472
322651
322865
323083
323320
323500
323810
324022
324186
324465
324673
324842
325087
325301
325516
325691
325997
326215
326382
326640
326846
327013
327280
327503
327722
327962
328175
328390
328560
328843
329054
329201
329485
329709
329876
330174
330392
330583
330809
331028
331249
331504
331746
331978
332206
332498
332717
332912
333219
333424
333598
333893
334124
334304
334588
334807
334971
335190
335527
335724
335971
336199
336432
336637
336942
337155
337402
337626
337832
338038
338360
338580
338759
339090
339310
339556
339773
339975
340146
340452
340693
340849
341210
341408
341685
341908
342124
342295
342569
342792
342976
343227
343439
343648
343824
344060
344263
344479
344732
344974
345197
345394
345717
345924
346096
346428
346626
346798
347090
347323
347493
347800
348013
348193
348511
348709
348914
349237
349451
349646
349971
350180
350432
350661
350865
351134
351388
351619
351896
352134
352357
352629
352851
353014
353361
353579
353797
354057
354281
354493
354672
354971
355181
355385
355744
355958
356237
356467
356694
356928
357157
357354
357662
357909
358080
358418
358623
358806
359070
359281
359447
359748
359976
360175
360482
360700
360930
361158
361369
361627
361864
362093
362369
362611
362820
363081
363313
363526
363745
363948
364165
364375
364622
364861
365063
365361
365590
365768
366099
366324
366559
366745
366947
367081
367316
367544
367731
368031
368234
368434
368757
368981
369212
369433
369650
369833
370146
370346
370542
370835
371066
371298
371534
371752
371966
372226
372445
372667
372946
373193
373411
373687
373938
374147
374408
374622
374841
375095
375337
375566
375812
376049
376259
376549
376768
376950
377118
377286
377517
377747
377912
378157
378301
378513
378729
378898
379196
379430
379623
379909
380117
380315
380524
380727
380936
381132
381392
381631
381818
382175
382383
382628
382850
383060
383276
383544
383786
384008
384285
384538
384753
385045
385264
385438
385633
385780
385990
386243
386406
386792
387013
387261
387483
387691
387938
388195
388420
388724
388970
389149
389321
389474
389703
389934
390191
390436
390664
390953
391198
391417
391707
391938
392126
392295
392468
392733
392963
393221
393454
393671
393945
394176
394399
394659
394907
395138
395428
395661
395870
396138
396362
396591
396866
397111
397325
397603
397844
398055
398312
398539
398766
399032
399270
399495
399735
399966
400179
400459
400687
400913
401200
401446
401655
401828
402177
402380
402610
402823
403059
403324
403568
403783
404073
404309
404658
404808
405073
405287
405616
405855
406114
406350
406560
406804
407026
407248
407544
407789
408006
408278
408521
408732
408976
409195
409416
409672
409917
410149
410398
410621
410835
411088
411301
411517
411746
411984
412211
412469
412705
412918
413170
413389
413602
413861
414098
414319
414560
414792
415004
415270
415503
415704
415970
416209
416441
416679
416910
417123
417377
417600
417809
418085
418320
418543
418799
419030
419249
419501
419717
419916
420180
420425
420653
420900
421131
421345
421618
421850
422053
422283
422508
422727
422945
423163
423372
423569
423765
423951
424137
424321
424511
424700
424885
425071
425252
425430
425599
425776
425946
426114
426277
426435
426597
426769
426950
427131
427303
427473
427633
427805
427977
428143
428316
428494
428674
428869
429070
429271
429482
429684
429876
429977
430243
430428
430617
430796
430994
431196
431400
431609
431808
431994
432193
432387
432571
432756
432933
433126
433333
433529
433727
433923
434107
434293
434478
434666
434857
435041
435224
435421
435624
435824
436026
436223
436426
436630
436832
437042
437226
437432
437645
437858
438078
438894
439095
439297
439483
439686
439882
440123
440335
440515
440730
440919
441109
441300
441486
441676
441884
442102
442325
442538
442763
442973
443174
443380
443579
443773
443937
443990
444200
444413
444624
444821
445023
445201
445418
445618
445807
445993
446187
446388
446590
446784
446984
447186
447386
447577
447767
447963
448168
448357
448655
448854
449085
449298
449502
449738
449962
450160
450386
450611
451087
451306
451506
451761
451988
452177
452429
452650
452866
453101
453326
453538
453757
453967
454124
454389
454584
454783
454999
455215
455435
455645
455871
456089
456136
456453
456701
456896
457097
457301
457496
458432
458613
458799
458988
459178
459386
459600
459800
460070
460290
460507
460725
460923
461113
461329
461553
461772
462002
462216
462423
462641
462843
463043
463250
463472
463969
464215
464409
464682
464887
465085
465285
465487
465696
465909
466108
466305
466491
466689
466892
467092
467285
467470
467681
467910
468129
468353
468576
468793
469013
469226
469435
469627
469826
470025
470229
470440
470642
470842
471039
471238
471441
471637
471884
472128
472325
472850
473063
473262
473463
473665
473862
474143
474349
474653
474894
475056
475342
475540
475759
475957
476149
476411
476627
476846
477061
477288
477475
477633
477930
478123
478314
478509
478706
478903
479101
479291
479482
479695
479930
480129
480403
480598
480826
481036
481245
481476
481705
481900
482185
482380
482603
482814
483024
483253
483483
483676
483946
484160
484336
484536
484797
484986
485229
485461
485658
485913
486113
486309
486535
486746
486925
487210
487423
487661
487874
488076
488272
488463
488643
488824
489001
489171
489357
489546
489744
489941
490148
490344
490559
490756
490951
491142
491320
491518
491725
491936
492147
492358
492534
492795
493006
493436
493649
493847
494137
494613
494829
495039
495252
495458
495647
495862
496102
496311
496630
496835
497105
497329
497528
497713
498008
499914
500139
500400
500630
500845
501070
501291
501499
501723
501925
502124
502366
502596
502813
503044
503265
503464
503763
503986
504193
504425
504652
504859
505117
505341
505545
505832
506058
506416
506719
506940
507161
507369
507578
507748
507989
508189
508384
508585
508788
508994
509190
509420
509628
509824
510025
510227
510427
510606
510849
511070
511277
511558
511792
512015
512200
512458
512657
512868
513083
513304
513551
513773
513982
514194
514408
514623
514826
515020
515229
515414
515715
515920
516204
516428
516631
516858
517072
517279
517498
517706
517919
518130
518344
518568
518756
519038
519235
519442
519655
519875
520094
520319
520530
520746
520963
521165
521414
521623
521828
522077
522313
522517
522789
523006
523205
523376
523616
523812
524028
524261
524478
524725
524931
525141
525351
525553
525743
525934
526143
526350
526549
526768
526986
527182
527463
527681
527841
528122
528332
528561
528770
528973
529170
529387
529603
529785
530040
530241
530427
530691
530912
531078
531318
531526
531721
531928
532158
532349
532604
532844
533052
533346
533573
533766
533967
534223
534415
534620
534825
535022
535216
535405
535601
535813
536043
536282
536475
536758
536962
537241
537479
537693
537897
538094
538294
538498
538708
538900
539151
539369
539581
539801
540017
540226
540443
540645
540845
541043
541252
541467
541636
541903
542112
542283
542517
542721
542899
543124
543325
543513
543774
543993
544174
544451
544669
544826
545111
545310
545520
545731
545938
546113
546380
546587
546756
546995
547185
547368
547562
547765
547974
548166
548385
548581
548786
548994
549197
549395
549580
549781
549996
550211
550423
550627
551010
551196
551388
551592
551791
552004
552170
552450
552661
552848
553058
553260
553459
553682
553875
554088
554293
554594
554799
555044
555257
555462
555669
555884
556082
556363
556585
556801
557026
557254
557466
557687
557883
558075
558242
558479
558704
558920
559131
559330
559540
559756
559986
560203
560401
560625
560865
561097
561345
561556
561774
562012
562242
562453
562677
562909
563136
563413
563645
563865
564127
564345
564552
564806
565053
565276
565537
565777
565992
566251
566483
566692
566940
567165
567391
567670
567898
568115
568373
568604
568809
569060
569308
569524
569805
570055
570278
570556
570782
570991
571250
571481
571710
571987
572227
572437
572694
572940
573148
573434
573666
573937
574185
574406
574667
574905
575110
575368
575596
575815
576090
576325
576549
576828
577058
577269
577454
577772
577988
578259
578493
578710
578970
579196
579406
579684
579918
580110
580449
580702
580947
581312
581456
581701
581912
582179
582439
582646
582977
583206
583373
583720
583924
584194
584427
584662
584933
585186
585394
585682
585909
586106
586462
586654
586970
587211
587363
587719
587925
588178
588395
588607
588849
589103
589306
589639
589857
590134
590377
590558
590735
590879
591128
591363
591654
591893
592059
592256
592411
592656
592857
593152
593404
593553
593925
594128
594401
594619
594826
595049
595273
595507
595781
596014
596226
596495
596739
596947
597202
597435
597663
597936
598172
598385
598641
598883
599077
599347
599574
599795
600011
600232
600454
600685
600903
601121
601343
601557
601780
602084
602331
602486
602831
603030
603329
603548
603719
604046
604260
604558
604793
604951
605284
605487
605745
605970
606200
606407
606739
606942
607234
607467
607660
608015
608270
608528
608792
609141
609302
609578
609776
610110
610330
610632
610869
611061
611431
611631
611842
612158
612349
612617
612857
613081
613354
613585
613773
613958
614108
614346
614548
614841
615083
615406
615635
615820
616183
616384
616702
616936
617197
617466
617684
617969
618202
618375
618557
618694
618923
619156
619474
619718
619870
620235
620430
620732
620953
621104
621464
621663
621964
622200
622403
622606
622900
623087
623382
623620
623799
624006
624357
624572
624720
625054
625244
625489
625733
625964
626219
626456
626669
626957
627177
627366
627696
627898
628207
628451
628613
628942
629145
629396
629604
629833
630077
630372
630596
630765
631126
631319
631630
631844
632042
632378
632582
632872
633093
633303
633491
633797
633996
634261
634497
634734
634935
635255
635454
635718
635943
636151
636354
636702
636904
637179
637416
637627
637827
638134
638321
638639
638876
639131
639369
639587
639849
640080
640288
640484
640836
641039
641327
641563
641735
641928
642070
642281
642488
642723
642998
643240
643467
643731
643970
644186
644455
644681
644893
645153
645388
645608
645834
646068
646284
646540
646764
646967
647286
647526
647685
648034
648225
648522
648745
648899
649207
649430
649705
649936
