58
251
472
610
867
1082
1299
1587
1819
2029
2250
2509
2750
2988
3247
3465
3675
3866
4152
4382
4596
4826
5125
5364
5632
5829
6093
6365
6741
6948
7188
7415
7618
7843
8400
8670
8877
9104
9416
9679
9900
10248
10499
10751
10953
11056
11428
11671
11924
12168
12377
12532
12790
13017
13202
13453
13724
13978
14198
14450
14668
14954
15185
15414
15643
15875
16126
16352
16606
16846
16997
17259
17522
17787
18054
18258
18514
18748
18977
19086
19356
19556
19768
20035
20275
20511
20693
21048
21248
21444
21639
21840
22084
22357
22619
22877
23185
23439
23692
23940
24194
24432
24701
24968
25193
25391
25513
25847
26103
26309
26515
26780
27112
27366
27580
27827
28100
28333
28620
28887
29136
29414
29662
29910
30206
30449
30684
30956
31151
31424
31637
31917
32152
32341
32553
32806
33084
33339
33606
33871
34131
34380
34607
34801
35071
35358
35696
35915
36167
36420
36645
36889
37121
37330
37612
37876
38134
38370
38603
38852
39067
39342
39557
39837
40112
40329
40538
40778
41047
41301
41566
41817
42049
42289
42489
42681
42919
43116
43346
43550
43800
44133
44372
44592
44732
45052
45193
45514
45656
45982
46236
46427
46667
46848
47112
47357
47570
47827
48100
48287
48506
48837
49089
49316
49518
49675
49997
50289
50560
50812
51059
51324
51521
51814
52085
52369
52613
52920
53169
53421
53666
53965
54246
54553
54782
54999
55234
55544
55796
56060
56310
56599
56871
57128
57372
57600
57853
58093
58362
58573
58839
59067
59402
59610
59880
60119
60361
60566
60763
61018
61273
61527
61792
62020
62252
62475
62711
62979
63210
63478
63717
63946
64219
64469
64770
64992
65239
65521
65809
66040
66303
66625
66823
67080
67332
67573
67839
68119
68362
68565
68822
69080
69303
69525
69751
70016
70291
70536
70793
71027
71283
71508
71729
71936
72048
72568
72793
73017
73225
73464
73713
73993
74251
74470
74575
74830
75071
75276
75479
75661
75956
76224
76448
76687
76899
77152
77350
77541
77798
78036
78278
78522
78767
78988
79166
79477
79719
79958
80213
80462
80570
80903
81185
81335
81475
81645
81876
82099
82391
82666
82920
83133
83395
83667
83915
84031
84321
84524
84787
85060
85324
85576
85816
86077
86314
86538
86730
87128
87402
87678
87888
88149
88394
88635
88857
89074
89315
89599
89898
90162
90368
90589
90857
91120
91362
91587
91837
92139
92403
92813
93012
93259
93369
93667
93922
94186
94478
94708
95048
95281
95576
95840
96097
96397
96622
96782
97092
97339
97578
97833
98079
98386
98564
98790
99070
99318
99572
99832
100036
100269
100556
100728
100976
101239
101458
101658
101908
102141
102383
102646
102919
103167
103442
103653
103887
104139
104426
104725
104957
105188
105425
105705
105949
106157
106383
106513
106823
107089
107314
107523
107734
107980
108193
108332
108654
108837
109059
109302
109545
109766
110004
110255
110509
110767
110995
111261
111533
111765
111999
112268
112496
112704
112953
113164
113373
113612
113923
114182
114393
114590
114768
115062
115329
115561
115796
115911
116226
116466
116700
116909
117163
117510
117761
117991
118308
118543
118788
119018
119266
119499
119674
119979
120184
120412
120751
121056
121309
121559
121835
122082
122364
122594
122837
123071
123291
123512
123820
124053
124294
124528
124825
125096
125310
125573
125826
126122
126399
126640
126888
127163
127410
127645
127875
128135
128421
128621
128870
128996
129307
129522
129756
130016
130276
130551
130821
131148
131503
131755
132013
132274
132536
132807
133047
133338
133633
133889
134090
134381
134643
134895
135170
135401
135645
135853
136093
136335
136664
136905
137189
137436
137681
137926
138153
138412
138665
138930
139285
139528
139778
140031
140250
140545
140830
141106
141360
141650
141920
142195
142386
142614
142866
143104
143391
143667
143938
144201
144448
144671
144919
145129
145416
145706
145939
146195
146404
146623
146836
147038
147245
147573
147832
148102
148336
148548
148782
149016
149236
149559
149828
150050
150316
150573
150821
151032
151247
151456
151597
151774
151964
152079
152178
152364
152604
152726
153061
153294
153498
153756
154045
154312
154553
154776
155025
155397
155638
155905
156159
156445
156700
156937
157177
157398
157609
157822
158037
158309
158549
158949
159210
159477
159736
159936
160178
160440
160723
160981
161213
161478
161702
161934
162166
162439
162700
162826
163128
163361
163595
163850
164222
164447
164742
165016
165282
165495
165695
165929
166190
166470
166686
166884
167128
167378
167625
167895
168197
168445
168686
168953
169219
169451
169715
170054
170222
170472
170589
170856
171118
171381
171593
171829
172099
172359
172572
172817
173042
173292
173595
173845
174188
174591
174842
175109
175371
175605
175907
176169
176405
176604
176964
177146
177401
177704
177984
178233
178493
178748
178936
179274
179500
179937
180190
180453
180681
180966
181214
181442
181643
181866
182160
182454
182749
182983
183196
183434
183684
183948
184224
184452
184720
184967
185104
185460
185607
185888
186186
186470
186728
186974
187200
187406
187645
187891
188128
188385
188676
188913
189196
189455
189678
189970
190210
190431
190679
190941
191207
191492
191765
192037
192277
192504
192781
193067
193301
193547
193765
193978
194081
194428
194931
195173
195399
195659
195921
196138
196335
196589
196846
197104
197376
197604
197850
198078
198292
198436
198736
198957
199207
199445
199709
199941
200203
200447
200693
200920
201289
201525
201796
202038
202143
202483
202700
202927
203175
203398
203668
203947
204187
204398
204624
204874
205138
205358
205579
205803
206067
206319
206573
206788
207031
207235
207473
207789
208062
208326
208599
208876
209119
209340
209589
209846
210172
210421
210677
210949
211205
211440
211783
212030
212253
212502
212796
213154
213466
213742
214001
214223
214481
214794
215059
215289
215487
215718
216023
216160
216417
216658
216769
217081
217295
217547
217847
218047
218273
218398
218667
218923
219163
219415
219517
219872
220087
220279
220445
220677
220960
221238
221518
221787
221995
222252
222452
222666
222827
222972
223260
223514
223760
224024
224263
224481
224735
224999
225218
225478
225733
226042
226320
226564
226816
227078
227371
227607
227943
228154
228409
228670
228900
229097
229333
229589
229859
230102
230311
230530
230725
230977
231194
231385
231515
231785
232017
232243
232492
232687
232881
233104
233352
233612
233877
234116
234377
234622
234866
235060
235267
235502
235859
236410
236703
237000
237229
237465
237714
237966
238281
238559
238810
239046
239281
239517
239745
239935
240172
240410
240644
240934
241203
241436
241667
241917
242118
242227
242570
242846
243150
243411
243635
243836
244124
244382
244599
244897
245134
245339
245593
245818
246284
246513
246783
247113
247348
247669
247928
248211
248641
248886
249215
249479
249697
249985
250221
250459
250710
250955
251207
251500
251746
252002
252237
252481
252720
252969
253211
253456
253700
253925
254186
254431
254648
254912
255144
255457
255736
255971
256180
256455
256722
256943
257173
257428
257662
257907
258177
258407
258649
258877
259119
259376
259607
259818
260066
260330
260576
260802
261026
261280
261531
261723
261946
262158
262266
262538
262677
262936
263200
263415
263670
263944
264225
264504
264752
265016
265217
265449
265668
265913
266255
266509
266729
266982
267225
267539
267796
268120
268394
268610
268894
269131
269407
269628
269877
270123
270364
270573
270820
271139
271387
271621
271847
272088
272322
272557
272802
273033
273328
273564
273939
274200
274461
274755
275028
275265
275565
275819
276041
276258
276542
276798
277061
277312
277520
277727
277850
277984
278200
278422
278678
278925
279167
279393
279588
279824
280005
280337
280488
280749
280998
281256
281501
281760
281990
282223
282496
282705
282965
283179
283399
283681
283947
284238
284534
284814
285069
285288
285519
285793
286040
286288
286559
286824
287059
287406
287623
287855
288092
288305
288532
288646
288754
288923
289037
289381
289608
289842
290125
290391
290640
290843
291140
291444
291676
291916
292196
292444
292781
293039
293285
293521
293780
293994
294262
294499
294754
295048
295312
295570
295798
296033
296284
296566
296828
297108
297336
297565
297762
297887
298134
298330
298596
298811
298964
299114
299424
299690
299959
300223
300463
300717
300973
301176
301430
301686
301948
302199
302467
302696
302909
303050
303152
303401
303631
303961
304182
304416
304657
304934
305190
305413
305685
305912
306116
306391
306546
306776
307022
307277
307540
307815
308070
308320
308533
308865
309087
309335
309591
309828
310083
310354
310608
310872
311041
311300
311630
311885
312115
312367
312605
312834
313080
313333
313558
313830
314098
314385
314620
314844
315102
315327
315561
315845
316003
316269
316666
316912
317173
317474
317706
317955
318164
318406
318621
318885
319141
319391
319638
319882
320140
320386
320660
320948
321128
321366
321654
321878
322110
322421
322695
322900
323162
323481
323717
323963
324195
324443
324659
324901
325101
325414
325652
325850
326102
326303
326530
326750
327014
327278
327505
327759
327996
328229
328493
328819
329086
329323
329565
329781
330001
330220
330419
330664
330877
331105
331385
331673
331903
332157
332399
332612
332889
333111
333408
333568
333855
334075
334307
334569
334819
335190
335426
335674
335967
336216
336460
336746
336948
337349
337607
337901
338155
338438
338656
338879
339121
339359
339465
339860
340137
340356
340464
340779
341005
341224
341451
341637
341899
342166
342413
342608
342851
343095
343424
343643
343882
344104
344344
344573
344826
345088
345350
345586
345776
345986
346157
346522
346658
346911
347165
347393
347616
347807
348036
348339
348547
348779
349054
349268
349394
349745
349884
350207
350364
350645
350917
351161
351372
351639
351909
352116
352368
352600
352906
353143
353398
353652
353885
354155
354395
354597
354855
355094
355408
355673
355891
356138
356366
356606
356846
357081
357301
357594
357881
358136
358389
358610
358817
359054
359287
359552
359806
360057
360310
360724
360930
361188
361539
361817
362073
362413
362608
362855
363114
363383
363631
363914
364162
364418
364640
364894
365134
365380
365641
365879
366091
366203
366553
366697
367040
367189
367438
367669
367796
368075
368237
368492
368788
368938
369264
369411
369712
369879
370132
370399
370618
370894
371173
371433
371644
371901
372183
372460
372719
372964
373222
373470
373733
373908
374144
374444
374709
374965
375247
375562
375822
376062
376331
376633
376851
377112
377230
377476
377716
377944
378163
378263
378530
378814
379105
379375
379561
379814
380031
380262
380511
380808
380953
381192
381439
381698
381927
382116
382354
382614
382883
383198
383483
383741
384013
384279
384529
384755
384951
385193
385458
385716
386039
386381
386625
386865
387121
387408
387707
387942
388202
388393
388716
388960
389196
389334
389688
389851
390034
390222
390493
390775
391089
391243
391611
391759
392028
392298
392581
392803
393095
393341
393637
393915
394184
394670
394928
395178
395454
395676
395907
396199
396484
396708
396936
397089
397332
397515
397807
397990
398308
398467
398662
399004
399154
399310
399601
399872
400225
400382
400693
401038
401311
401572
401699
401940
402176
402469
402760
403017
403278
403547
403777
404016
404218
404443
404734
405007
405275
405547
405827
406029
406271
406554
406823
407161
407383
407600
407802
408009
408299
408590
408823
409047
409572
409802
410071
410326
410604
410884
411112
411342
411457
411750
412021
412303
412512
412815
413093
413310
413524
413797
414055
414321
414564
414786
415028
415238
415520
415771
415973
416203
416470
416705
416942
417059
417390
417642
417945
418180
418430
418540
418882
419143
419370
419599
419861
420121
420407
420654
420922
421164
421428
421739
421957
422234
422509
422764
423055
423329
423578
423860
424132
424415
424612
424883
425142
425367
425585
425716
426025
426180
426532
426856
427102
427355
427605
427852
428092
428246
428576
428842
429093
429307
429516
429734
429928
430153
430447
430716
431000
431322
431549
431763
432002
432221
432540
432786
433058
433332
433605
433853
434087
434336
434617
434890
435093
435367
435573
435805
436038
436289
436401
436643
436881
437140
437406
437647
437896
438150
438403
438659
438880
439103
439391
439719
439940
440157
440368
440473
440797
441012
441263
441526
441760
442058
442304
442519
442749
443001
443255
443481
443738
443987
444258
444511
444748
444958
445159
445347
445715
445880
446168
446553
446783
447004
447234
447486
447730
447977
448233
448514
448809
449076
449299
449530
449797
450084
450356
450579
450830
451242
451498
451717
451960
452203
452459
452729
452958
453217
453428
453684
453949
454243
454491
454954
455192
455489
455738
456105
456363
456738
456976
457202
457412
457618
457872
458107
458339
458556
458795
459030
459265
459496
459716
459913
460116
460222
460558
460751
461030
461298
461528
461785
461898
462276
462544
462945
463210
463446
463720
463984
464248
464466
464777
465088
465303
465549
465817
466073
466343
466547
466779
467004
467249
467470
467717
467829
468106
468376
468615
468856
469143
469438
469712
469979
470236
470474
470666
470886
471108
471341
471587
471881
472198
472425
472614
472823
473067
473289
473493
473754
474032
474268
474514
474748
474969
475210
475450
475667
475915
476171
476408
476615
476868
477101
477327
477682
477929
478247
478476
478726
478950
479200
479406
479637
479880
480214
480397
480674
481003
481267
481487
481705
481920
482121
482364
482665
482960
483415
483564
483861
484074
484295
484516
484771
484995
485308
485579
485834
486067
486295
486572
486789
487047
487274
487539
487773
487996
488322
488539
488774
488994
489259
489489
489779
490037
490275
490505
490730
491012
491325
491663
491908
492178
492409
492786
493059
493538
493803
494058
494279
494518
494766
494990
495200
495497
495852
496182
496449
496655
496777
497109
497349
497597
497851
498227
498440
498714
498959
499210
499429
499636
499870
500098
500341
500607
500867
501117
501376
501571
501822
502088
502340
502563
502782
503030
503215
503423
503643
503880
504106
504366
504628
504858
505115
505403
505699
505900
506121
506382
506608
506830
506949
507340
507590
507817
508068
508276
508525
508789
509119
509359
509579
509794
510026
510275
510525
510792
511059
511306
511536
511765
511998
512188
512559
512813
513064
513313
513606
513873
514211
514443
514714
514959
515220
515443
515550
515824
516036
516253
516460
516709
516939
517186
517433
517698
517947
518199
518420
518677
518948
519211
519423
519679
519942
520185
520436
520686
520939
521191
521474
521727
521963
522180
522386
522632
522883
523122
523388
523650
523883
524121
524452
524653
524837
525164
525394
525655
525914
526174
526422
526659
526876
527127
527366
527568
527864
528115
528379
528583
528825
529093
529317
529552
529750
530026
530254
530507
530716
530965
531223
531440
531647
531896
532173
532426
532713
532995
533223
533445
533687
533931
534184
534513
534752
534993
535281
535580
535818
536037
536252
536536
536795
537049
537314
537579
537814
538083
538306
538592
538852
539082
539356
539573
539818
540097
540324
540554
540784
541042
541303
541601
541815
542056
542255
542494
542890
543143
543383
543607
543851
544108
544456
544682
544896
545004
545385
545648
545872
546122
546420
546741
546960
547223
547524
547771
547997
548263
548524
548766
549024
549233
549487
549612
549900
550154
550396
550636
551009
551248
551521
551826
552077
552189
552543
552853
553112
553375
553637
553840
554096
554404
554684
554918
555148
555414
555727
555995
556262
556516
556785
557063
557288
557569
557814
558071
558293
558514
558751
559031
559276
559543
559775
559997
560216
560479
560732
560992
561230
561434
561741
561988
562209
562485
562654
562960
563247
563490
563720
563956
564176
564462
564692
564903
565149
565351
565567
565879
566021
566436
566723
566989
567222
567440
567639
567863
567982
568233
568527
568873
569131
569397
569644
569866
570128
570385
570618
570847
571152
571396
571617
571888
572293
572481
572713
572915
573174
573440
573702
574078
574333
574622
574890
575093
575337
575789
576114
576321
576528
576770
577044
577245
577544
577847
578103
578331
578592
578849
579071
579262
579522
579638
580000
580232
580478
580725
580927
581159
581448
581674
581921
582176
582457
582684
582882
583146
583528
583759
584012
584276
584524
584712
585025
585262
585507
585741
585981
586238
586491
586734
586988
587246
587469
587677
587909
588112
588403
588547
588872
589019
589295
589582
589837
589959
590155
590421
590667
590907
591139
591353
591607
591885
592089
592340
592508
592779
593004
593288
593555
593834
594096
594362
594624
594878
595104
595384
595629
595867
596285
596586
596829
597244
597395
597741
597866
598201
598423
598631
599019
599165
599441
599676
599859
600219
600474
600695
600912
601164
601429
601681
601899
602133
602244
602524
602759
602984
603208
603320
603654
603945
604172
604435
604697
605012
605228
605448
605692
605941
606199
606443
606726
606985
607215
607428
607662
607914
608177
608411
608516
608877
609019
609367
609598
609933
610200
610450
610687
610893
611154
611371
611602
611846
612163
612442
612680
612907
613140
613352
613569
613818
614070
614277
614554
614824
615109
615286
615592
615810
616049
616306
616568
616826
617103
617319
617549
617787
618081
618333
618598
618865
619117
619384
619622
619823
620083
620347
620618
620913
621127
621352
621615
621848
622085
622310
622522
622787
623066
623348
623580
623787
624165
624417
624636
625013
625299
625571
625777
626028
626263
626573
626809
627034
627312
627555
627818
628077
628329
628443
628793
629125
629402
629631
629876
630196
630491
630725
630950
631198
631461
631715
631943
632207
632347
632695
632841
633133
633272
633651
634279
634624
634886
635093
635375
635821
636077
636292
636553
636824
637039
637349
637817
638062
638358
638576
638832
639067
639371
639580
639836
640087
640302
640516
640789
641047
641283
641524
641765
642033
642281
642510
642758
643053
643320
643579
643796
644018
644263
644413
644596
644829
644982
645283
645557
645812
646026
646261
646489
646775
646986
647237
647490
647967
648244
648488
648746
648944
649217
649495
649759
649963
