96
254
479
674
873
1076
1273
1467
1655
1850
2047
2237
2434
2632
2833
3022
3220
3409
3604
3806
4008
4201
4401
4593
4785
4977
5173
5375
5572
5772
5963
6157
6348
6544
6743
6942
7135
7334
7522
7715
7915
8108
8302
8498
8700
8899
9096
9285
9482
9682
9883
10075
10274
10462
10657
10850
11043
11237
11433
11637
11828
12022
12215
12410
12607
12809
13006
13204
13392
13585
13781
13978
14174
14370
14569
14764
14958
15146
15339
15536
15737
15930
16128
16321
16513
16706
16906
17096
17296
17499
17695
17887
18081
18273
18472
18672
18867
19062
19254
19447
19636
19835
20027
20223
20419
20615
20809
21005
21193
21388
21592
21792
21991
22185
22375
22572
22729
22954
23155
23351
23555
23744
23937
24128
24328
24526
24726
24921
25116
25306
25498
25697
25895
26092
26289
26487
26681
26881
27070
27263
27462
27662
27855
28050
28242
28435
28630
28825
29021
29217
29418
29618
29813
30006
30207
30407
30611
30802
31004
31195
31390
31587
31782
31978
32177
32378
32570
32765
32961
33154
33349
33550
33748
33946
34136
34335
34531
34728
34928
35124
35324
35523
35721
35913
36106
36305
36507
36698
36899
37088
37284
37477
37677
37872
38070
38268
38467
38662
38857
39049
39249
39448
39644
39844
40037
40231
40421
40622
40811
41007
41206
41403
41596
41791
41981
42178
42380
42583
42778
42969
43165
43362
43561
43748
43953
44158
44356
44550
44748
44941
45135
45334
45530
45730
45921
46123
46307
46507
46701
46905
47102
47297
47490
47684
47877
48074
48271
48470
48667
48862
49053
49244
49445
49631
49831
50022
50232
50422
50619
50816
51011
51211
51409
51605
51801
51995
52189
52384
52575
52777
52974
53174
53362
53561
53751
53938
54142
54337
54535
54725
54923
55115
55310
55506
55702
55895
56099
56292
56485
56677
56871
57069
57269
57449
57659
57849
58041
58240
58427
58626
58822
59025
59213
59410
59603
59797
59995
60189
60397
60591
60785
60981
61177
61372
61570
61768
61967
62158
62355
62549
62743
62939
63142
63322
63537
63728
63922
64119
64311
64504
64707
64906
65101
65295
65488
65683
65885
66085
66280
66479
66667
66861
67051
67244
67439
67635
67834
68027
68230
68423
68615
68817
69021
69216
69412
69605
69804
70000
70195
70389
70591
70788
70986
71178
71371
71557
71765
71966
72161
72364
72555
72749
72942
73142
73335
73537
73737
73939
74132
74331
74526
74722
74924
75123
75323
75513
75703
75894
76101
76292
76489
76687
76885
77076
77275
77464
77662
77862
78065
78257
78457
78655
78846
79045
79239
79437
79632
79831
80023
80219
80410
80607
80803
81004
81189
81395
81586
81782
81982
82180
82383
82580
82779
82977
83171
83360
83560
83759
83957
84154
84351
84539
84734
84934
85124
85323
85525
85723
85914
86113
86306
86504
86707
86908
87102
87297
87443
87676
87884
88079
88276
88468
88668
88860
89052
89241
89438
89637
89839
90027
90232
90424
90621
90823
91011
91211
91411
91616
91807
92003
92201
92398
92592
92788
92984
93175
93381
93572
93769
93965
94167
94363
94562
94753
94953
95146
95341
95537
95735
95928
96128
96310
96508
96692
96900
97095
97286
97491
97682
97875
98068
98265
98464
98663
98859
99059
99251
99445
99646
99829
100037
100236
100436
100638
100834
101025
101219
101419
101618
101811
102010
102191
102399
102597
102792
102993
103190
103392
103588
103790
103978
104173
104373
104583
104777
104975
105167
105366
105558
105750
105950
106137
106351
106531
106742
106941
107134
107330
107534
107731
107930
108120
108318
108511
108708
108905
109104
109304
109499
109696
109886
110076
110279
110481
110673
110874
111063
111258
111452
111634
111846
112034
112252
112450
112646
112846
113037
113234
113438
113632
113828
114019
114212
114402
114597
114796
114994
115186
115391
115588
115783
115974
116176
116377
116576
116775
116968
117160
117352
117543
117747
117944
118149
118344
118537
118730
118925
119121
119321
119516
119717
119909
120103
120296
120499
120687
120898
121097
121300
121494
121687
121884
122083
122283
122481
122683
122873
123067
123217
123456
123650
123850
124054
124251
124445
124641
124834
124999
125238
125440
125636
125830
126025
126224
126421
126616
126818
127020
127214
127405
127604
127795
127992
128197
128397
128594
128785
128981
129182
129378
129521
129764
129972
130167
130361
130558
130749
130949
131154
131350
131545
131735
131933
132123
132322
132519
132715
132917
133114
133308
133504
133698
133902
134101
134297
134454
134688
134888
135083
135283
135476
135626
135868
136065
136261
136454
136649
136852
137051
137246
137444
137637
137831
138024
138225
138419
138617
138822
139017
139211
139404
139600
139805
140005
140199
140400
140591
140787
140982
141182
141374
141575
141777
141970
142168
142368
142561
142760
142924
143163
143363
143558
143753
143949
144147
144344
144540
144738
144937
145134
145323
145517
145714
145924
146117
146315
146503
146711
146904
147101
147300
147501
147697
147893
148088
148289
148480
148677
148881
149076
149280
149468
149660
149857
150054
150247
150443
150645
150840
151036
151233
151430
151628
151831
152030
152228
152418
152616
152814
153007
153200
153400
153600
153794
153988
154188
154379
154576
154780
154980
155176
155369
155570
155762
155958
156156
156357
156557
156754
156951
157148
157334
157531
157732
157934
158126
158290
158511
158711
158908
159097
159295
159494
159680
159892
160087
160282
160480
160678
160877
161075
161269
161459
161653
161851
162040
162240
162435
162636
162826
163026
163223
163415
163615
163819
164018
164213
164406
164608
164805
164996
165197
165398
165593
165796
165993
166181
166377
166586
166783
166981
167174
167373
167551
167764
167957
168161
168359
168564
168761
168951
169144
169339
169548
169750
169944
170139
170336
170528
170716
170924
171119
171323
171516
171722
171917
172104
172307
172515
172717
172913
173108
173306
173491
173701
173893
174096
174293
174498
174692
174883
175080
175284
175485
175684
175884
176074
176273
176465
176656
176864
177051
177269
177455
177667
177861
178053
178254
178459
178656
178850
179041
179236
179433
179625
179818
180019
180217
180416
180612
180809
181005
181204
181408
181602
181807
181997
182188
182386
182573
182784
182983
183183
183375
183570
183761
183958
184154
184356
184537
184751
184922
185140
185336
185531
185726
185927
186132
186326
186517
186716
186910
187108
187316
187507
187705
187894
188087
188282
188474
188676
188875
189072
189267
189461
189659
189853
190051
190258
190454
190664
190853
191048
191245
191443
191637
191829
192027
192228
192423
192613
192806
193010
193213
193404
193601
193795
193992
194184
194386
194578
194776
194983
195180
195378
195574
195773
195973
196172
196368
196567
196762
196956
197148
197351
197542
197741
197935
198143
198342
198535
198732
198931
199135
199303
199532
199725
199920
200119
200314
200505
200693
200908
201103
201295
201493
201689
201884
202086
202283
202483
202676
202870
203070
203273
203467
203666
203860
204064
204244
204457
204659
204857
205059
205251
205455
205645
205839
206026
206234
206427
206626
206824
207029
207224
207417
207617
207815
208017
208214
208419
208606
208802
208998
209196
209390
209587
209790
209985
210179
210372
210569
210768
210970
211169
211372
211563
211759
211955
212154
212355
212527
212754
212950
213152
213341
213535
213737
213942
214133
214329
214521
214722
214918
215112
215310
215515
215719
215912
216110
216310
216507
216706
216905
217103
217308
217501
217691
217888
218082
218286
218485
218687
218880
219085
219274
219470
219678
219876
220072
220261
220472
220665
220869
221058
221260
221462
221659
221851
222049
222240
222437
222634
222840
223034
223231
223429
223621
223819
224012
224219
224415
224615
224811
224999
225209
225390
225608
225799
226015
226209
226401
226595
226800
226988
227186
227385
227593
227784
227977
228159
228374
228577
228781
228982
229137
229372
229567
229770
229966
230165
230365
230569
230762
230952
231152
231337
231558
231758
231909
232144
232344
232537
232743
232939
233137
233340
233543
233709
233931
234130
234332
234535
234733
234934
235124
235322
235516
235718
235912
236111
236316
236516
236713
236907
237109
237310
237511
237709
237909
238104
238307
238506
238704
238900
239107
239310
239506
239702
239900
240096
240295
240500
240698
240896
241087
241284
241487
241684
241882
242082
242289
242486
242683
242877
243079
243280
243483
243679
243882
244072
244266
244470
244665
244865
245064
245271
245464
245661
245857
246055
246257
246462
246663
246861
247053
247253
247453
247646
247851
248048
248250
248443
248644
248835
249032
249239
249441
249638
249838
250034
250227
250427
250622
250832
251031
251230
251428
251630
251823
252021
252228
252431
252627
252819
253017
253211
253411
253607
253806
254003
254203
254402
254596
254792
254999
255204
255402
255602
255798
255995
256189
256390
256584
256785
256991
257184
257381
257578
257775
257972
258176
258378
258577
258769
258971
259166
259366
259567
259767
259976
260175
260373
260570
260766
260966
261175
261366
261565
261760
261954
262153
262350
262540
262750
262959
263156
263353
263553
263751
263954
264161
264357
264556
264751
264946
265149
265343
265549
265744
265947
266142
266338
266532
266729
266941
267141
267337
267538
267741
267939
268141
268338
268538
268739
268944
269139
269333
269530
269730
269933
270132
270336
270528
270725
270922
271120
271316
271520
271725
271922
272122
272320
272514
272719
272926
273123
273326
273520
273718
273912
274112
274311
274507
274710
274910
275109
275302
275498
275705
275911
276104
276311
276506
276705
276911
277103
277305
277510
277713
277906
278105
278300
278497
278701
278903
279100
279294
279498
279691
279894
280091
280295
280493
280699
280904
281100
281293
281491
281700
281904
282095
282295
282482
282688
282883
283078
283284
283482
283684
283876
284079
284272
284470
284674
284878
285079
285277
285470
285664
285876
286066
286270
286459
286676
286867
287066
287259
287463
287665
287859
288062
288257
288452
288646
288847
289038
289237
289442
289632
289844
290040
290237
290435
290637
290835
291042
291233
291425
291611
291818
292013
292212
292417
292611
292806
293005
293203
293400
293605
293807
294009
294197
294395
294593
294788
294983
295176
295385
295571
295789
295976
296176
296387
296585
296779
296977
297174
297376
297571
297767
297968
298177
298374
298576
298774
298972
299177
299376
299580
299776
299981
300171
300361
300569
300764
300966
301165
301375
301578
301770
301963
302169
302379
302580
302776
302974
303175
303369
303569
303767
303974
304174
304368
304571
304771
304967
305167
305377
305528
305770
305957
306166
306370
306565
306768
306969
307179
307375
307573
307771
307972
308172
308372
308578
308766
308970
309162
309374
309569
309775
309971
310177
310376
310573
310767
310968
311178
311385
311579
311785
311983
312179
312380
312579
312781
312979
313180
313377
313573
313764
313968
314176
314377
314575
314765
314964
315146
315364
315566
315772
315974
316173
316374
316575
316769
316971
317176
317372
317573
317765
317967
318169
318310
318422
318751
318965
319160
319360
319555
319757
319953
320164
320359
320557
320748
320951
321147
321340
321542
321736
321934
322133
322324
322720
322929
323133
323327
323526
323725
323921
324121
324320
324520
324706
324922
325122
325319
325512
325714
325915
326116
326309
326517
326708
326897
327100
327304
327504
327703
327916
328110
328310
328510
328707
328913
329121
329320
329513
329716
329917
330118
330314
330518
330718
330923
331119
331317
331515
331719
331881
332121
332313
332525
332726
332868
333111
333316
333523
333726
333924
334129
334322
334518
334724
334927
335127
335331
335520
335720
335924
336123
336322
336522
336736
336931
337132
337328
337532
337736
337941
338139
338335
338534
338734
338937
339128
339332
339539
339737
339896
340133
340334
340533
340740
340946
341147
341343
341549
341744
341946
342148
342347
342551
342755
342952
343146
343346
343548
343754
343952
344153
344344
344540
344745
344939
345139
345344
345552
345747
345950
346147
346345
346548
346756
346954
347155
347348
347546
347746
347941
348146
348349
348549
348742
348939
349132
349328
349536
349746
349944
350141
350338
350536
350737
350939
351142
351342
351541
351737
351933
352123
352318
352526
352723
352921
353113
353314
353505
353703
353898
354103
354306
354502
354704
354900
355093
355294
355499
355696
355895
356087
356282
356475
356674
356870
357071
357276
357474
357675
357865
358060
358265
358475
358669
358872
359064
359260
359452
359645
359844
360042
360243
360395
360629
360821
361014
361208
361414
361613
361810
362001
362193
362389
362590
362784
362982
363187
363390
363587
363781
363980
364184
364391
364588
364791
364986
365181
365380
365582
365781
365984
366189
366393
366592
366788
366993
367203
367409
367606
367814
368011
368208
368411
368615
368820
369017
369224
369424
369623
369818
370021
370233
370434
370634
370835
371035
371235
371440
371642
371845
372052
372258
372459
372654
372854
373066
373271
373469
373678
373872
374070
374273
374475
374677
374878
375089
375285
375486
375685
375894
376101
376290
376508
376695
376910
377094
377313
377499
377718
377920
378117
378317
378516
378706
378913
379121
379337
379473
379658
379906
380127
380312
380527
380735
380934
381126
381331
381519
381732
381927
382134
382317
382486
382718
382914
383124
383315
383517
383720
383919
384130
384327
384523
384721
384934
385135
385339
385537
385732
385929
386135
386324
386528
386731
386932
387128
387327
387528
387730
387935
388138
388336
388531
388734
388876
388993
389327
389537
389741
389941
390137
390338
390539
390736
390941
391142
391346
391534
391733
391940
392137
392338
392541
392749
392934
393143
393347
393546
393752
393958
394161
394356
394556
394756
394953
395150
395358
395557
395758
395959
396154
396355
396543
396771
396970
397176
397373
397573
397770
397973
398176
398373
398579
398779
398978
399171
399371
399577
399776
399974
400179
400377
400574
400774
400973
401174
401376
401586
401786
401987
402183
402389
402577
402795
402992
403197
403395
403592
403795
403990
404195
404401
404601
404801
405002
405196
405388
405607
405808
406009
406208
406409
406607
406810
407012
407218
407419
407619
407826
408017
408218
408421
408626
408822
409027
409223
409422
409627
409822
410027
410229
410439
410640
410838
411035
411240
411448
411651
411852
412052
412234
412452
412656
412853
413059
413259
413462
413665
413861
414056
414263
414475
414667
414874
415077
415279
415474
415674
415883
416083
416294
416491
416690
416886
417089
417295
417488
417701
417905
418096
418296
418501
418653
418899
419107
419310
419508
419708
419906
420107
420314
420517
420720
420911
421112
421311
421508
421706
421910
422116
422313
422516
422712
422907
423113
423323
423521
423725
423925
424120
424311
424525
424728
424930
425138
425330
425534
425715
425927
426134
426332
426544
426739
426935
427134
427344
427537
427739
427950
428155
428354
428549
428740
428959
429165
429368
429572
429763
429962
430163
430365
430566
430768
430978
431172
431374
431573
431781
431985
432194
432398
432605
432800
432995
433205
433400
433603
433806
434016
434211
434409
434608
434813
435019
435223
435431
435626
435824
436026
436228
436428
436633
436848
437044
437241
437444
437649
437851
438060
438262
438463
438655
438857
439062
439257
439464
439667
439869
440067
440270
440474
440676
440885
441091
441301
441495
441698
441902
442107
442303
442507
442718
442915
443113
443314
443519
443722
443928
444132
444339
444534
444735
444942
445145
445349
445556
445766
445962
446168
446367
446573
446775
446980
447186
447387
447581
447778
447989
448189
448391
448597
448806
449007
449204
449406
449617
449832
450029
450232
450431
450637
450837
451034
451241
451450
451652
451849
452056
452260
452462
452664
452872
453080
453280
453480
453689
453893
454090
454297
454511
454718
454917
455113
455318
455528
455735
455933
456138
456341
456543
456745
456944
457157
457360
457566
457761
457972
458176
458378
458591
458797
458998
459196
459394
459603
459808
460006
460206
460419
460623
460825
461021
461229
461438
461644
461843
462056
462258
462458
462661
462867
463074
463277
463488
463691
463891
464088
464300
464510
464706
464913
465116
465319
465517
465719
465930
466132
466339
466539
466752
466952
467151
467355
467571
467778
467977
468179
468375
468582
468784
468984
469190
469395
469603
469798
469996
470204
470422
470622
470823
471022
471235
471440
471635
471842
472055
472261
472459
472665
472866
473067
473269
473477
473686
473884
474075
474286
474492
474693
474899
475112
475315
475515
475710
475920
476130
476339
476539
476750
476951
477148
477350
477546
477762
477966
478170
478373
478577
478775
478978
479191
479398
479603
479800
480005
480210
480408
480614
480806
481034
481231
481437
481638
481830
482035
482248
482452
482653
482845
483047
483244
483460
483660
483866
484076
484284
484482
484679
484886
485100
485296
485499
485697
485904
486097
486295
486488
486710
486914
487113
487319
487518
487716
487920
488136
488339
488539
488736
488940
489140
489337
489548
489751
489947
490151
490361
490556
490758
490964
491173
491372
491569
491776
491977
492174
492377
492591
492801
492998
493201
493404
493602
493805
494017
494221
494421
494615
494813
495023
495218
495421
495625
495818
496032
496233
496430
496636
496846
497047
497257
497458
497656
497857
498063
498264
498467
498675
498880
499074
499269
499476
499678
499884
500090
500286
500492
500679
500898
501102
501312
501513
501717
501922
502125
502321
502522
502738
502943
503143
503335
503540
503743
503936
504133
504325
504561
504762
504960
505166
505368
505574
505781
505987
506190
506382
506588
506791
506989
507197
507403
507612
507806
508006
508206
508416
508624
508822
509028
509210
509430
509630
509836
510046
510243
510448
510651
510860
511053
511252
511462
511669
511869
512070
512265
512472
512679
512870
513075
513283
513492
513689
513879
514080
514303
514506
514711
514923
515113
515315
515518
515722
515923
516126
516336
516532
516735
516934
517133
517338
517549
517755
517951
518146
518292
518544
518745
518958
519170
519370
519568
519770
519972
520175
520383
520572
520792
520987
521188
521395
521593
521794
522002
522209
522405
522610
522818
523019
523223
523435
523637
523840
524040
524248
524450
524647
524855
525003
525253
525455
525664
525866
526066
526279
526487
526688
526884
527093
527300
527495
527699
527908
528121
528319
528525
528729
528927
529128
529340
529548
529750
529943
530140
530345
530554
530764
530964
531170
531376
531584
531782
531985
532200
532409
532614
532806
533015
533223
533419
533620
533827
534042
534234
534437
534639
534848
535052
535256
535461
535649
535874
536010
536130
536469
536685
536888
537091
537300
537495
537689
537896
538108
538308
538509
538707
538910
539111
539310
539518
539726
539933
540134
540341
540539
540746
540962
541163
541366
541573
541773
541970
542177
542376
542580
542788
542989
543196
543389
543592
543802
544009
544218
544421
544621
544828
545035
545231
545438
545650
545855
546057
546259
546461
546663
546874
547081
547283
547479
547685
547893
548089
548295
548509
548721
548919
549125
549332
549536
549742
549952
550163
550362
550558
550755
550965
551172
551372
551577
551784
551993
552189
552387
552592
552811
553019
553220
553415
553618
553834
554037
554241
554445
554655
554862
555061
555258
555468
555682
555880
556084
556284
556493
556691
556895
557104
557308
557522
557727
557929
558125
558332
558548
558754
558958
559158
559364
559565
559766
559966
560174
560387
560586
560787
560987
561197
561409
561617
561824
562032
562228
562428
562632
562839
563048
563185
563323
563559
563800
563997
564201
564415
564625
564828
565025
565222
565423
565636
565838
566040
566245
566455
566655
566858
567056
567267
567484
567684
567884
568085
568288
568490
568690
568899
569101
569309
569513
569720
569917
570119
570333
570546
570747
570947
571149
571356
571559
571761
571973
572165
572377
572580
572787
572989
573190
573399
573604
573815
574013
574212
574417
574624
574837
575038
575245
575443
575648
575854
576061
576268
576468
576679
576884
577083
577280
577485
577694
577902
578097
578306
578501
578724
578924
579131
579346
579555
579751
579949
580152
580367
580562
580767
580969
581183
581387
581582
581782
581999
582212
582409
582612
582817
583014
583225
583425
583629
583837
584050
584245
584445
584636
584763
585071
585272
585474
585679
585884
586080
586276
586496
586699
586904
587083
587316
587514
587716
587929
588140
588338
588536
588734
588939
589150
589343
589545
589731
589964
590171
590364
590565
590778
590987
591163
591389
591592
591790
591991
592193
592405
592594
592812
593017
593214
593412
593620
593827
594027
594230
594433
594628
594829
595039
595236
595437
595642
595853
596054
596252
596452
596668
596876
597074
597277
597481
597687
597887
598083
598295
598502
598703
598853
599095
599300
599502
599718
599924
600126
600326
600534
600735
600937
601140
601350
601562
601760
601965
602170
602366
602567
602782
602989
603190
603368
603581
603790
603995
604203
604402
604607
604810
605021
605222
605427
605640
605848
606052
606236
606459
606646
606860
607073
607274
607480
607680
607891
608086
608291
608502
608705
608910
609095
609324
609522
609730
609916
610139
610345
610551
610760
610953
611152
611363
611575
611770
611973
612172
612382
612581
612764
612988
613202
613411
613602
613790
614022
614225
614434
614644
614845
615047
615251
615448
615653
615854
616063
616263
616455
616673
616869
617074
617284
617498
617697
617903
618106
618304
618509
618711
618922
619123
619331
619535
619735
619932
620127
620354
620556
620760
620961
621166
621369
621566
621773
621985
622193
622391
622593
622800
622991
623213
623418
623625
623833
624030
624226
624433
624637
624840
625044
625250
625450
625650
625853
626060
626276
626475
626681
626886
627090
627292
627485
627707
627914
628120
628324
628525
628725
628934
629141
629348
629558
629750
629958
630162
630317
630564
630776
630983
631183
631393
631595
631796
632008
632217
632419
632623
632826
633026
633224
633440
633646
633852
634057
634265
634459
634663
634871
635080
635283
635497
635695
635895
636088
636306
636520
636723
636926
637132
637332
637528
637731
637946
638150
638354
638539
638760
638965
639163
639368
639584
639795
639995
640201
640402
640605
640813
641027
641233
641429
641633
641834
642036
642235
642445
642657
642856
643055
643257
643454
643670
643882
644087
644296
644490
644688
644902
645106
645312
645513
645723
645925
646121
646319
646530
646742
646940
647148
647348
647546
647749
647954
648164
648367
648520
648763
648975
649175
649375
649578
649791
