124
313
503
704
901
1098
1294
1481
1668
1854
2042
2222
2407
2594
2786
2990
3199
3399
3605
3789
3971
4153
4339
4520
4711
4910
5111
5309
5503
5690
5876
6069
6258
6426
6631
6817
7012
7216
7412
7616
7816
8018
8205
8390
8570
8753
8946
9103
9215
9548
9744
9943
10135
10322
10488
10619
10875
11062
11253
11448
11643
11841
12050
12248
12436
12618
12797
12976
13160
13340
13533
13731
13937
14138
14333
14517
14700
14885
15019
15262
15456
15649
15846
16043
16244
16436
16634
16807
17005
17180
17361
17542
17730
17927
18130
18327
18468
18716
18900
19084
19263
19442
19554
19816
20010
20210
20402
20595
20794
20996
21180
21360
21537
21718
21902
22098
22283
22486
22687
22894
23087
23278
23459
23638
23822
24015
24205
24406
24601
24800
25007
25202
25394
25575
25759
25938
26075
26308
26500
26705
26921
27125
27328
27512
27654
27766
28056
28243
28429
28627
28823
29021
29212
29400
29590
29778
29957
30138
30314
30491
30675
30825
31065
31266
31469
31670
31857
32040
32217
32396
32585
32783
32978
33180
33375
33573
33772
33960
34146
34329
34516
34703
34846
35083
35279
35485
35703
35905
36057
36282
36463
36646
36828
37017
37210
37413
37610
37811
38006
38196
38358
38569
38745
38930
39109
39296
39478
39678
39870
40075
40274
40466
40647
40828
41007
41192
41383
41580
41777
41978
42174
42369
42561
42743
42930
43114
43307
43492
43686
43878
44076
44281
44492
44685
44875
45053
45234
45418
45601
45791
45985
46161
46392
46592
46785
46969
47151
47335
47518
47706
47892
48081
48269
48472
48665
48862
49050
49237
49417
49598
49773
49952
50145
50347
50549
50753
50948
51137
51330
51512
51690
51875
52066
52262
52456
52658
52854
53057
53259
53453
53638
53820
53994
54176
54365
54559
54756
54952
55160
55360
55553
55732
55907
56088
56279
56467
56658
56850
57047
57238
57398
57623
57812
57991
58170
58343
58503
58710
58900
59039
59303
59499
59700
59877
60058
60198
60420
60595
60780
60969
61168
61366
61565
61754
61945
62134
62312
62503
62684
62865
63057
63257
63448
63647
63850
64059
64241
64422
64556
64673
64973
65165
65291
65566
65762
65960
66154
66346
66525
66702
66879
67062
67242
67437
67626
67820
68030
68243
68437
68621
68799
68970
69148
69330
69521
69713
69915
70112
70315
70506
70688
70870
71052
71231
71421
71546
71682
71990
72197
72390
72588
72784
72931
73144
73319
73495
73679
73871
74068
74260
74462
74650
74842
75029
75209
75393
75571
75762
75943
76138
76327
76521
76721
76922
77109
77296
77472
77650
77824
78009
78193
78391
78589
78790
78989
79184
79363
79544
79729
79914
80105
80296
80483
80676
80873
81062
81263
81452
81639
81817
81999
82180
82350
82555
82760
82962
83167
83361
83551
83731
83910
84086
84251
84458
84650
84846
85045
85245
85439
85637
85826
86005
86183
86360
86541
86722
86902
87093
87290
87491
87689
87881
88064
88240
88416
88597
88786
88976
89172
89363
89561
89762
89950
90133
90311
90493
90669
90852
91035
91225
91427
91640
91842
92037
92224
92405
92587
92771
92946
93130
93321
93526
93704
93925
94119
94310
94500
94693
94873
95061
95240
95430
95619
95823
96022
96229
96431
96626
96810
96996
97177
97363
97558
97759
97959
98163
98362
98551
98742
98925
99113
99300
99498
99680
99880
100071
100272
100476
100685
100877
101068
101249
101431
101620
101807
102001
102201
102408
102605
102746
102984
103176
103365
103560
103747
103940
104131
104328
104527
104733
104927
105127
105316
105502
105677
105850
106027
106212
106413
106626
106836
107049
107239
107427
107612
107790
107972
108162
108364
108562
108765
108961
109160
109365
109564
109743
109926
110062
110192
110463
110662
110852
111052
111253
111454
111642
111824
112001
112181
112360
112552
112741
112941
113139
113338
113543
113733
113920
114098
114282
114460
114654
114838
115029
115231
115441
115643
115850
116035
116219
116396
116575
116755
116944
117144
117343
117502
117743
117930
118119
118306
118486
118667
118849
119026
119176
119401
119588
119792
119990
120192
120377
120558
120733
120912
121101
121296
121485
121689
121879
122082
122280
122469
122652
122835
123022
123208
123400
123590
123782
123985
124202
124408
124609
124790
124971
125149
125336
125518
125713
125911
126114
126315
126519
126708
126892
127079
127264
127442
127635
127817
128014
128220
128417
128617
128815
129011
129194
129379
129561
129746
129937
130145
130351
130562
130763
130967
131156
131340
131474
131705
131897
132091
132286
132484
132676
132879
133082
133278
133460
133641
133815
133992
134182
134371
134563
134758
134966
135169
135371
135558
135738
135920
136112
136304
136499
136692
136890
137083
137242
137475
137668
137840
138037
138213
138401
138580
138773
138979
139191
139390
139593
139776
139960
140145
140329
140515
140703
140903
141100
141304
141507
141704
141898
142090
142271
142456
142638
142826
143016
143221
143416
143628
143835
144037
144220
144402
144581
144766
144963
145164
145363
145571
145770
145925
146173
146356
146542
146722
146913
147053
147296
147488
147685
147889
148111
148309
148502
148672
148849
149028
149217
149408
149617
149831
150049
150254
150453
150635
150819
151009
151201
151399
151589
151785
151984
152191
152394
152601
152795
152978
153156
153336
153523
153720
153859
153990
154182
154348
154552
154753
154939
155122
155286
155487
155682
155844
156076
156276
156476
156683
156891
157084
157269
157449
157632
157815
158008
158194
158399
158554
158822
159017
159207
159389
159574
159761
159953
160141
160338
160533
160732
160939
161131
161325
161509
161696
161875
162061
162224
162432
162632
162848
163051
163259
163443
163625
163806
163988
164174
164363
164562
164758
164962
165163
165360
165560
165753
165934
166117
166297
166485
166667
166865
167055
167263
167472
167677
167859
168042
168221
168405
168598
168793
168990
169198
169397
169598
169797
169983
170169
170351
170535
170722
170915
171106
171298
171498
171710
171915
172116
172297
172474
172651
172836
173019
173217
173352
173617
173812
174014
174202
174388
174571
174753
174927
175117
175296
175487
175675
175870
176061
176260
176453
176638
176816
176997
177174
177357
177552
177758
177960
178107
178354
178545
178718
178912
179094
179275
179466
179612
179715
180051
180214
180458
180663
180854
181038
181218
181398
181578
181768
181955
182159
182361
182572
182767
182943
183138
183318
183502
183695
183882
184077
184266
184465
184666
184865
185058
185242
185426
185605
185791
185979
186167
186363
186575
186787
186996
187193
187379
187557
187740
187918
188115
188314
188527
188727
188933
189129
189328
189526
189654
189895
190082
190267
190456
190661
190859
191066
191269
191475
191661
191846
192000
192126
192399
192602
192802
193012
193209
193414
193614
193798
193980
194159
194344
194527
194715
194898
195086
195288
195501
195700
195893
196069
196247
196423
196609
196788
196982
197180
197388
197591
197794
197988
198175
198362
198545
198730
198920
199110
199302
199505
199699
199890
200110
200302
200481
200660
200835
201023
201214
201418
201616
201831
202022
202217
202403
202545
202766
202947
203138
203318
203510
203702
203896
204100
204309
204472
204680
204856
205038
205216
205404
205588
205791
205997
206160
206276
206594
206782
206963
207146
207332
207524
207720
207909
208104
208306
208503
208706
208894
209081
209262
209444
209630
209816
210015
210224
210427
210637
210834
211026
211205
211387
211562
211749
211940
212140
212328
212485
212716
212913
213069
213304
213482
213663
213838
214025
214215
214407
214604
214802
215009
215207
215395
215573
215748
215930
216120
216310
216506
216702
216897
217091
217296
217484
217672
217853
218040
218223
218411
218598
218794
218975
219219
219416
219615
219797
219981
220163
220346
220533
220726
220930
221137
221343
221547
221741
221888
222121
222303
222493
222680
222874
223036
223276
223467
223675
223872
224064
224247
224429
224605
224786
224979
225183
225382
225590
225784
225977
226165
226347
226531
226715
226910
227099
227296
227495
227695
227903
228114
228306
228495
228676
228861
229051
229247
229441
229648
229861
230072
230280
230475
230660
230845
231034
231230
231428
231625
231827
232027
232231
232424
232575
232809
232991
233167
233346
233529
233726
233940
234151
234292
234563
234756
234942
235130
235310
235456
235691
235890
236089
236293
236447
236692
236894
237085
237271
237452
237637
237822
238018
238211
238418
238626
238839
239037
239224
239402
239585
239777
239974
240172
240374
240574
240770
240976
241168
241363
241553
241742
241926
242114
242295
242509
242723
242948
243158
243355
243538
243718
243904
244086
244279
244473
244677
244880
245084
245280
245477
245624
245852
246027
246210
246390
246576
246772
246961
247164
247368
247575
247761
247943
248120
248300
248490
248690
248885
249093
249291
249495
249696
249891
250079
250264
250450
250639
250831
251026
251221
251423
251632
251836
252035
252220
252404
252582
252767
252945
253141
253341
253553
253752
253953
254139
254327
254517
254706
254893
255082
255266
255459
255661
255858
256065
256261
256452
256631
256813
256994
257179
257375
257579
257777
257984
258181
258379
258566
258750
258927
259107
259291
259481
259670
259870
260059
260255
260444
260575
260841
261027
261203
261384
261573
261766
261967
262172
262385
262587
262786
262973
263159
263345
263538
263727
263928
264076
264329
264528
264730
264920
265112
265298
265483
265669
265855
266039
266231
266439
266648
266851
267045
267225
267403
267585
267725
267952
268139
268342
268538
268744
268942
269140
269335
269525
269705
269891
270077
270267
270461
270662
270864
271074
271286
271482
271669
271850
272031
272223
272424
272627
272836
273036
273238
273439
273640
273830
274015
274203
274394
274589
274785
274984
275190
275410
275618
275820
276003
276188
276369
276556
276746
276948
277161
277367
277571
277765
277957
278151
278343
278525
278716
278898
279097
279299
279504
279667
279908
280104
280286
280467
280642
280814
281000
281198
281401
281610
281810
282006
282194
282382
282562
282749
282937
283130
283321
283521
283722
283932
284147
284352
284543
284728
284910
285093
285289
285474
285679
285889
286103
286308
286507
286693
286880
287070
287261
287455
287649
287844
288042
288251
288451
288656
288850
289035
289213
289395
289580
289773
289979
290189
290389
290593
290789
290978
291164
291338
291519
291702
291899
292091
292291
292482
292675
292854
293079
293263
293448
293621
293806
293991
294187
294385
294588
294795
294997
295193
295381
295564
295750
295941
296133
296335
296534
296737
296932
297134
297323
297513
297700
297888
298070
298256
298439
298635
298845
299059
299264
299462
299644
299827
300012
300192
300378
300564
300764
300928
301163
301359
301550
301736
301922
302102
302287
302472
302658
302843
303044
303237
303444
303647
303850
304032
304217
304396
304582
304779
304987
305188
305400
305597
305800
305997
306183
306370
306555
306750
306940
307141
307334
307534
307744
307960
308159
308353
308535
308716
308899
309089
309285
309490
309703
309906
310108
310301
310489
310677
310867
311011
311247
311433
311632
311832
312038
312233
312430
312617
312796
312973
313149
313327
313509
313706
313912
314112
314321
314512
314698
314880
315059
315243
315431
315631
315798
316028
316224
316426
316635
316839
317024
317207
317383
317569
317759
317954
318161
318364
318577
318776
318976
319162
319310
319536
319729
319919
320126
320324
320530
320738
320933
321130
321318
321509
321691
321884
322069
322261
322466
322691
322903
323111
323297
323480
323659
323835
324023
324146
324419
324615
324820
325019
325218
325419
325614
325796
325979
326158
326349
326544
326746
326952
327156
327371
327571
327765
327949
328131
328319
328520
328676
328929
329130
329333
329534
329730
329923
330112
330302
330488
330676
330867
331066
331276
331493
331695
331896
332079
332265
332448
332629
332815
333004
333205
333402
333602
333799
333985
334170
334351
334531
334713
334901
335086
335277
335480
335674
335883
336088
336288
336474
336656
336836
337023
337223
337433
337639
337846
338047
338248
338446
338632
338821
339004
339199
339385
339588
339785
339988
340193
340403
340596
340788
340969
341153
341339
341521
341716
341918
342129
342330
342527
342713
342893
343077
343264
343451
343641
343830
344022
344218
344421
344612
344808
344992
345178
345354
345536
345713
345897
346093
346306
346514
346652
346912
347097
347279
347463
347639
347821
348005
348202
348390
348591
348782
348981
349178
349364
349537
349685
349887
350069
350252
350437
350628
350827
351035
351235
351419
351597
351772
351954
352143
352290
352526
352725
352922
353116
353316
353503
353691
353873
354055
354231
354419
354605
354797
354994
355148
355422
355624
355807
355988
356169
356350
356538
356731
356936
357143
357348
357547
357739
357878
358120
358301
358489
358671
358858
359050
359256
359454
359664
359871
360062
360242
360420
360599
360788
360991
361195
361406
361615
361815
362009
362203
362386
362574
362756
362942
363127
363322
363518
363721
363931
364134
364441
364684
364863
365038
365231
365425
365623
365843
366048
366253
366437
366622
366767
366996
367177
367371
367556
367752
367951
368152
368359
368557
368752
368931
369115
369296
369483
369678
369885
370086
370297
370497
370694
370882
371067
371252
371439
371636
371821
372019
372215
372402
372622
372772
373020
373208
373387
373564
373741
373930
374118
374321
374530
374731
374927
375119
375303
375489
375680
375870
376064
376259
376454
376654
376859
377049
377247
377438
377627
377808
377992
378171
378366
378570
378780
378983
379193
379345
379576
379767
379950
380134
380323
380526
380729
380938
381140
381339
381541
381739
381925
382113
382292
382481
382673
382875
383077
383282
383496
383698
383893
384041
384264
384450
384651
384851
385064
385273
385477
385676
385876
386066
386256
386445
386635
386824
387022
387220
387376
387648
387862
388061
388247
388428
388609
388801
388986
389186
389382
389589
389785
389989
390178
390366
390552
390736
390923
391118
391305
391499
391706
391906
392120
392323
392521
392703
392889
393074
393265
393466
393679
393891
394106
394307
394505
394698
394881
395071
395259
395456
395647
395850
396048
396256
396469
396675
396863
397048
397225
397408
397602
397796
398004
398209
398424
398625
398827
399017
399205
399393
399587
399758
399985
400186
400393
400604
400803
401008
401199
401389
401573
401760
401943
402138
402349
402572
402789
403000
403124
403377
403564
403742
403936
404131
404333
404532
404742
404941
405145
405306
405536
405711
405891
406074
406265
406463
406655
406863
407069
407284
407480
407669
407848
408028
408220
408422
408617
408823
409017
409220
409430
409625
409817
410002
410191
410376
410571
410757
410930
411167
411384
411587
411787
411973
412157
412345
412525
412717
412910
413118
413316
413521
413719
413913
414103
414291
414471
414658
414844
415034
415228
415420
415621
415828
416035
416222
416403
416582
416762
416950
417152
417351
417556
417754
417955
418152
418346
418529
418713
418899
419089
419278
419470
419661
419868
420085
420298
420493
420676
420858
421038
421226
421408
421604
421801
422013
422211
422416
422603
422786
422970
423156
423339
423533
423721
423918
424116
424319
424520
424722
424914
425098
425282
425467
425653
425852
426061
426274
426488
426693
426893
427081
427267
427445
427634
427827
428031
428230
428436
428631
428835
428983
429238
429425
429608
429786
429971
430167
430359
430515
430765
430967
431157
431349
431529
431711
431893
432087
432275
432475
432670
432873
433070
433269
433459
433648
433838
434023
434209
434394
434585
434789
435005
435214
435371
435615
435801
435985
436172
436357
436553
436756
436963
437172
437380
437581
437781
437975
438162
438349
438540
438735
438935
439144
439295
439560
439772
439971
440158
440340
440521
440709
440909
441109
441325
441535
441738
441932
442123
442304
442492
442679
442869
443058
443185
443305
443431
443673
443896
444105
444302
444485
444672
444856
445049
445238
445442
445656
445873
446087
446288
446478
446668
446861
447051
447250
447437
447640
447841
448048
448257
448460
448659
448844
449032
449217
449411
449561
449827
450033
450252
450451
450651
450842
451020
451204
451386
451583
451770
451965
452153
452346
452482
452760
452948
453134
453308
453488
453670
453861
454058
454259
454465
454667
454871
455064
455250
455437
455626
455815
456012
456204
456409
456611
456813
457015
457215
457411
457600
457786
457940
458156
458355
458571
458781
458922
459193
459385
459570
459756
459940
460090
460322
460517
460715
460917
461114
461318
461516
461699
461879
462056
462236
462417
462608
462794
463000
463204
463418
463612
463803
463979
464162
464350
464554
464749
464960
465156
465362
465567
465767
465963
466153
466346
466532
466726
466918
467120
467332
467552
467759
467963
468145
468331
468514
468700
468894
469091
469305
469508
469656
469759
470106
470304
470497
470680
470868
471050
471238
471430
471632
471823
472026
472219
472407
472581
472760
472935
473119
473314
473522
473725
473933
474130
474329
474523
474708
474896
475079
475273
475460
475662
475857
476057
476266
476480
476676
476867
477050
477235
477423
477611
477811
478018
478239
478445
478653
478837
479024
479214
479408
479600
479798
479986
480152
480393
480596
480800
480991
481176
481351
481528
481708
481893
482046
482316
482708
482923
483115
483300
483482
483663
483843
484037
484239
484451
484658
484865
485016
485264
485458
485642
485827
486013
486207
486404
486611
486813
487025
487239
487440
487629
487811
487991
488180
488382
488584
488796
488998
489203
489400
489596
489785
489972
490158
490343
490529
490722
490916
491124
491337
491543
491740
491922
492105
492284
492472
492654
492852
493058
493267
493473
493672
493863
494054
494245
494430
494619
494804
494995
495191
495399
495597
495807
496010
496201
496385
496570
496752
496945
497144
497347
497555
497761
497969
498163
498353
498533
498720
498909
499102
499289
499483
499674
499873
500084
500293
500480
500662
500836
501017
501208
501394
501591
501790
502009
502168
502424
502611
502798
502983
503172
503363
503559
503752
503953
504149
504353
504554
504752
504942
505124
505305
505493
505680
505881
506097
506309
506521
506723
506917
507105
507293
507472
507660
507854
508060
508263
508469
508662
508862
509059
509252
509437
509585
509804
509989
510189
510317
510596
510804
511016
511207
511396
511579
511763
511951
512146
512337
512540
512733
512928
513118
513307
513489
513674
513858
514042
514228
514415
514605
514806
515022
515233
515433
515620
515804
515988
516178
516362
516559
516759
516919
517173
517378
517574
517762
517952
518139
518325
518519
518702
518894
519093
519289
519497
519698
519893
520069
520249
520424
520603
520804
521010
521209
521429
521632
521836
522032
522218
522402
522584
522781
522975
523128
523374
523576
523789
524009
524206
524397
524575
524753
524939
525129
525328
525537
525765
525976
526133
526238
526544
526705
526922
527109
527300
527484
527679
527874
528075
528267
528460
528642
528821
528996
529181
529360
529549
529751
529963
530168
530378
530569
530702
530936
531112
531298
531486
531684
531836
532078
532271
532469
532672
532868
533050
533198
533403
533585
533772
533962
534164
534363
534574
534725
534966
535147
535316
535509
535700
535887
536087
536275
536470
536663
536863
537055
537244
537425
537605
537785
537973
538159
538355
538566
538777
538988
539185
539371
539518
539739
539915
540108
540303
540505
540704
540859
540994
541297
541497
541686
541866
542053
542234
542422
542621
542814
543017
543218
543431
543622
543812
543992
544175
544359
544558
544752
544962
545160
545317
545549
545740
545923
546107
546289
546471
546652
546841
547031
547232
547379
547651
547846
548038
548219
548398
548581
548761
548955
549154
549367
549565
549771
549967
550157
550347
550539
550720
550918
551105
551305
551505
551707
551906
552109
552306
552494
552679
552859
553041
553233
553443
553652
553863
554063
554253
554439
554626
554804
554989
555171
555361
555549
555752
555945
556143
556347
556546
556729
556915
557092
557273
557460
557649
557852
558057
558269
558471
558673
558860
559046
559233
559427
559618
559822
560018
560225
560433
560636
560835
561028
561221
561404
561525
561784
561976
562185
562431
562657
562875
563068
563252
563437
563616
563807
564005
564214
564412
564619
564816
565013
565211
565401
565577
565755
565935
566125
566315
566518
566712
566860
567132
567330
567522
567704
567885
568074
568278
568477
568690
568889
569096
569298
569497
569688
569874
570064
570250
570447
570642
570841
571054
571277
571483
571684
571868
572056
572243
572426
572619
572815
572972
573115
573449
573651
573844
574034
574225
574407
574600
574786
574981
575181
575379
575587
575791
575993
576175
576356
576529
576709
576901
577099
577294
577501
577693
577896
578092
578279
578463
578643
578835
579027
579227
579381
579516
579832
580052
580255
580451
580632
580814
581000
581189
581386
581591
581812
582026
582231
582426
582614
582805
582996
583188
583386
583576
583779
583985
584189
584397
584597
584791
584924
585162
585347
585534
585730
585943
586151
586364
586505
586759
586943
587126
587302
587490
587681
587875
588015
588260
588449
588646
588850
589044
589224
589368
589579
589760
589952
590144
590343
590544
590757
590959
591157
591345
591529
591714
591913
592106
592313
592511
592717
592915
593117
593310
593504
593697
593882
594068
594255
594449
594656
594876
595088
595291
595414
595773
596025
596200
596389
596582
596788
596989
597195
597383
597574
597765
597954
598138
598329
598512
598702
598905
599105
599316
599523
599732
599917
600105
600286
600476
600625
600887
601095
601313
601516
601722
601924
602110
602297
602482
602681
602873
603078
603278
603438
603697
603914
604116
604307
604487
604665
604858
605045
605253
605415
605670
605863
606065
606250
606434
606619
606798
606983
607175
607362
607561
607766
607964
608166
608364
608558
608741
608925
609103
609291
609493
609708
609915
610130
610324
610523
610712
610895
611083
611271
611473
611663
611866
612066
612271
612486
612696
612883
613068
613248
613432
613628
613817
614023
614223
614445
614649
614851
615037
615224
615409
615569
615793
615991
616188
616389
616597
616789
616988
617175
617362
617540
617719
617861
618080
618278
618508
618751
618953
619137
619320
619503
619682
619865
620050
620246
620440
620644
620846
621046
621243
621435
621619
621806
621987
622141
622363
622561
622758
622970
623186
623396
623589
623771
623952
624137
624340
624543
624754
624959
625161
625363
625571
625760
625951
626135
626320
626506
626699
626892
627092
627299
627508
627706
627895
628074
628253
628433
628609
628796
628989
629160
629398
629599
629790
629978
630167
630358
630541
630732
630912
631102
631295
631501
631698
631905
632105
632297
632482
632669
632854
633048
633251
633458
633669
633880
634034
634284
634478
634657
634844
635034
635236
635432
635634
635829
636029
636243
636453
636640
636819
636992
637168
637360
637544
637691
637939
638144
638343
638543
638728
638910
639095
639280
639465
639658
639852
640056
640260
640471
640619
640864
641049
641237
641419
641610
641794
641994
642209
642505
642723
642925
643111
643294
643481
643664
643864
644067
644239
644383
644738
644942
645141
645337
645522
645705
645895
646082
646279
646488
646688
646897
647105
647256
647493
647675
647854
648045
648251
648458
648677
648899
649108
649305
649501
649685
649874
