301
615
888
1207
1418
1709
1925
2208
2479
2725
3011
3231
3458
3865
4278
4581
4904
5205
5572
5848
6059
6356
6688
7119
7388
7801
8213
8449
8731
8991
9237
9543
9883
10236
10533
10792
11024
11278
11544
11808
12147
12349
12707
13014
13316
13608
13864
14142
14416
14643
14963
15231
15579
15846
16094
16363
16618
16892
17196
17470
17751
17993
18291
18568
18793
19173
19458
19826
20030
20281
20654
20946
21179
21598
21842
22049
22299
22548
22842
23054
23353
23633
23880
24231
24431
24749
25016
25311
25516
25832
26102
26441
26653
26944
27174
27476
27690
27988
28306
28513
28784
29087
29354
29597
29844
30054
30379
30676
30968
31186
31454
31726
31981
32286
32634
32994
33246
33568
33849
34114
34414
34651
34847
35215
35453
35651
35907
36249
36452
36800
37051
37355
37660
37891
38182
38406
38689
38944
39235
39526
39749
40022
40329
40642
40994
41237
41498
41930
42225
42450
42894
43095
43421
43694
44025
44249
44537
44855
45197
45458
45678
45901
46132
46446
46786
47114
47440
47659
47962
48234
48510
48784
49108
49365
49582
49808
50131
50513
50742
51109
51365
51705
52019
52298
52588
52957
53277
53605
53844
54100
54304
54633
54911
55161
55428
55720
55931
56301
56580
56900
57154
57401
57701
57937
58181
58391
58666
58954
59249
59630
59865
60195
60463
60752
61019
61351
61681
61910
62208
62438
62731
63026
63190
63581
63906
64130
64384
64697
64992
65381
65657
65963
66316
66549
66835
67104
67421
67709
67891
68210
68447
68722
68971
69215
69487
69780
70068
70328
70590
70914
71250
71562
71818
72112
72458
72737
73110
73323
73636
73883
74123
74402
74650
74935
75275
75544
75808
76107
76404
76692
76925
77210
77487
77701
77958
78234
78484
78779
78976
79368
79615
79859
80188
80460
80726
81027
81381
81757
82021
82287
82515
82803
83161
83365
83698
83965
84281
84587
84855
85075
85355
85567
85891
86195
86469
86694
87012
87398
87669
87920
88221
88506
88710
89041
89311
89569
89874
90190
90581
90889
91231
91451
91648
91861
92297
92569
92778
93029
93330
93613
93856
94100
94306
94617
94964
95255
95534
95860
96142
96445
96849
97069
97354
97637
97917
98232
98440
98752
98949
99247
99537
99812
100026
100386
100594
100862
101091
101348
101571
101951
102319
102556
102836
103092
103413
103688
103908
104215
104431
104702
105013
105254
105524
105741
106029
106334
106602
106984
107319
107624
107917
108184
108412
109341
109695
110010
110252
110616
110945
111263
111572
111879
112186
112458
112828
113130
113444
113750
114059
114353
114685
114966
115301
115593
115925
116212
116544
117121
117416
117704
117999
118258
118534
118766
119064
119362
119658
119935
120169
120456
120731
120967
121278
121599
121851
122176
122486
122810
123006
123280
123625
123921
124144
124438
124744
124973
125274
125538
125859
126100
126342
126583
126808
127046
127352
127633
127840
128111
128379
128646
128884
129161
129499
129781
130067
130339
130626
130957
131229
131563
131858
132106
132335
132630
132997
133224
133550
133821
134075
134307
134512
134949
135172
135444
135751
135958
136234
136503
136736
137001
137305
137609
137829
138114
138376
138675
138939
139189
139467
139749
140051
140342
140674
140877
141180
141491
141748
142100
142335
142600
142836
143185
143439
143655
143948
144223
144419
144724
144948
145205
145443
145683
145928
146285
146597
146841
147075
147318
147588
147796
148069
148348
148809
149075
149404
149619
149873
150186
150473
150726
150971
151307
151577
151806
152061
152287
152555
152780
153052
153267
153577
153864
154093
154400
154669
154897
155096
155396
155657
155887
156161
156436
156714
157004
157290
157603
157902
158191
158488
158795
159033
159343
159641
159947
160230
160523
160771
161012
161288
161601
161851
162155
162448
162739
163059
163325
163633
164094
164338
164740
165065
165519
165807
166131
166376
166653
166966
167247
167561
167848
168153
168450
168857
169075
169320
169587
169876
170166
170449
170740
171038
171325
171583
171910
172214
172468
172858
173168
173413
173639
173995
174257
174580
174812
175060
175383
175670
175969
176262
176521
176798
177125
177327
177681
177981
178194
178476
178802
179106
179402
179664
179981
180239
180536
180838
181166
181437
181735
182018
182318
182549
182832
183204
183798
184094
184389
184677
184944
185219
185496
185799
186167
186509
186743
186959
187251
187534
187797
188059
188306
188559
188754
189017
189229
189471
189759
190025
190363
190821
191127
191563
191947
192239
192544
192742
193036
193325
193589
193794
194150
194348
194615
194905
195193
195392
195763
196065
196262
196611
196917
197229
197538
197827
198126
198345
198627
198910
199166
199401
199744
200090
200351
200637
200926
201140
201380
201707
202052
202375
202672
203001
203301
203586
203905
204190
204480
204794
205079
205358
205584
205813
206100
206429
206656
206934
207190
207423
207715
208017
208300
208561
208771
209023
209283
209564
209840
210119
210400
210622
210968
211248
211529
211795
212102
212380
212612
212948
213245
213531
213784
214043
214348
214686
214957
215249
215543
215804
216017
216254
216524
216806
217043
217265
217523
217799
218039
218454
218768
219127
219490
219689
220049
220251
220520
220815
221060
221271
221532
221806
222063
222342
222590
222850
223076
223365
223558
223857
224172
224406
224710
224979
225275
225483
225779
226066
226288
226584
226816
227079
227374
227657
227966
228231
228453
228728
228994
229269
229468
229740
230002
230241
230520
230726
231074
231286
231643
232005
232225
232465
232742
233037
233392
233771
234047
234265
234565
234920
235139
235424
235807
236176
236453
236757
237022
237252
237499
237764
237991
238249
238572
238853
239130
239492
239767
240071
240392
240705
240982
241296
241553
241836
242135
242454
242674
242952
243233
243501
243834
244115
244415
244668
244922
245167
245504
245822
246172
246440
246755
247152
247404
247622
247935
248210
248416
248743
249034
249379
249632
249906
250244
250769
251056
251328
251646
251896
252128
252438
252713
252937
253133
253512
253725
254084
254293
254522
254780
255044
255272
255560
255816
256110
256392
256640
256875
257326
257608
257830
258131
258402
258681
258914
259197
259405
259733
259976
260265
260571
260791
261098
261326
261665
261992
262307
262572
262922
263241
263449
263788
264010
264323
264528
264844
265159
265464
265665
265978
266210
266546
267016
267241
267517
267754
268026
268235
268451
268789
269083
269392
269673
269900
270156
270470
270775
270974
271324
271588
271828
272118
272337
272642
272941
273214
273479
273722
273960
274294
274625
274884
275190
275513
275842
276107
276351
276711
276982
277318
277515
277856
278061
278340
278602
278795
279044
279267
279579
279847
280179
280479
280872
281155
281417
281671
282054
282339
282655
282935
283260
283602
283864
284061
284382
284588
284904
285196
285416
285615
285881
286151
286439
286658
286944
287159
287623
287944
288236
288476
288769
289083
289355
289685
289974
290257
290520
290749
291024
291327
291556
291866
292175
292512
292842
293201
293462
293698
293944
294227
294488
294805
295134
295351
295676
295943
296261
296523
296770
297071
297358
297595
297823
298087
298604
298820
299197
299394
299764
300082
301004
301336
301583
301942
302498
302797
303146
303430
303765
304384
304684
304991
305288
305567
306103
306422
306748
307024
307324
307567
307839
308105
308358
308582
308853
309154
309384
309666
309963
310271
310602
310934
311228
311452
311715
311943
312215
312513
312711
312959
313230
313433
313747
314155
314372
314624
314852
315165
315360
315640
315918
316140
316390
316636
316872
317193
317388
317706
317983
318263
318524
318778
319094
319343
319637
319933
320202
320459
320690
320950
321260
321835
322164
322728
323049
323607
323908
324470
324762
325306
325599
326130
326453
326741
327012
327283
327537
327817
328031
328328
328558
328878
329149
329345
329627
329890
330126
330452
330769
331328
331642
332189
332486
333035
333324
333884
334169
334702
335001
335543
335836
336384
336686
337220
337522
338051
338339
338885
339172
339466
339732
340328
340639
341202
341501
342038
342333
342868
343157
343687
343986
344519
344814
345355
345633
346032
346586
346882
347426
347724
348248
348809
349097
349621
349921
350453
350744
351284
351833
352126
352661
352949
353490
354024
354329
354854
355156
355685
355980
356496
356787
357306
357605
358138
358442
358962
359268
359813
360342
360883
361405
361697
362217
362512
363038
363592
363876
364401
364949
365143
365498
366043
366324
366848
367142
367662
367958
368482
369031
369571
370109
370305
370656
371195
371484
372018
372553
373106
373392
373906
374185
374483
374773
375063
375366
375674
376230
376789
377335
377728
377976
378171
378437
378627
378843
379111
379358
379609
379895
380126
380405
380642
380882
381334
381666
381975
382288
382595
382908
383216
383518
384074
384380
384684
384987
385298
385602
385907
386213
386522
386836
387371
387934
388475
388780
389080
389392
389913
390230
390536
390738
391003
391377
391938
392482
393042
393580
394120
394419
394706
395266
395558
396074
396377
396902
397201
397509
398042
398341
398871
399178
399478
399769
400305
400848
401392
401889
402188
402525
402786
403014
403240
403489
403729
403936
404231
404501
404857
405213
405511
405747
405991
406196
406461
406672
406915
407232
407489
407716
408010
408212
408505
408751
409004
409309
409594
409889
410134
410371
410683
411032
411354
411662
411864
412214
412421
412749
413298
413617
413915
414220
414515
414834
415151
415461
415815
416114
416431
416755
417070
417390
417964
418523
418840
419148
419450
419761
420070
420380
420957
421522
422070
422623
423161
423465
423772
424065
424598
424910
425208
425514
425816
426126
426437
426985
427546
428092
428649
428839
429191
429738
430032
430320
430616
430919
431214
431517
431830
432151
432472
433043
433618
433940
434246
434557
435083
435390
435697
436009
436543
437110
437653
437846
438208
438408
438754
438943
439173
439402
439827
440119
440351
440584
440863
441151
441427
441645
441940
442257
442545
442809
443037
443351
443666
443941
444205
444463
444769
445072
445373
445709
445942
446207
446433
446699
446957
447262
447518
447870
448180
448407
448679
448997
449311
449636
449919
450132
450434
450710
451153
451499
451773
452011
452238
452501
452701
453071
453386
453652
453991
454517
454803
454994
455232
455477
455692
455976
456312
456539
456756
457084
457365
457637
457952
458191
458466
458778
459051
459300
459589
459910
460118
460412
460697
460930
461230
461513
461766
462070
462371
462597
462868
463106
463422
463679
463903
464185
464434
464756
465088
465449
465832
466132
466394
466691
466972
467190
467454
467753
468032
468346
468563
468850
469148
469459
469846
470171
470449
470743
470964
471322
471667
471986
472259
472587
472839
473094
473325
473544
473856
474118
474335
474702
474976
475208
475506
475782
475983
476298
476586
476876
477091
477458
477775
478098
478291
478576
478878
479190
479459
479688
480005
481113
481439
481719
482012
482552
482839
483372
483665
484212
484505
484994
485405
485979
486278
486817
487109
487660
487949
488495
488792
489327
489620
490169
490458
490989
491289
491824
492116
492659
493218
493520
494035
494335
494875
495165
495698
496001
496517
497069
497278
497632
497827
498188
498756
499308
499870
500418
500616
500977
501160
501526
501719
502021
502250
502485
502780
502988
503299
503584
503818
504110
504427
504767
505061
505347
505760
506038
506284
506518
506740
507023
507318
507661
507925
508181
508487
508804
509074
509310
509613
509888
510116
510355
510611
510894
511346
511641
511950
512160
512447
512738
512990
513242
513517
513809
514139
514470
514708
514991
515327
515652
515910
516107
516463
516740
516936
517263
517605
517917
518275
518601
518922
519182
519423
519727
520079
520417
520716
521000
521241
521442
521788
522108
522369
522570
522892
523177
523460
523750
523957
524193
524511
524756
525014
525282
525607
525825
526037
526361
526691
527012
527397
527678
527920
528186
528503
528802
529047
529300
529639
529964
530225
530435
530718
530929
531224
531486
531719
531919
532182
532430
532766
532978
533254
533472
533759
534098
534383
534669
534929
535132
535428
535608
535979
536249
536501
536793
537091
537454
537735
537973
538274
538596
538830
539157
539450
539726
539970
540280
540587
540889
541111
541434
541737
542054
542417
542721
543018
543274
543613
543955
544211
544484
544693
545089
545447
545808
546124
546382
546573
546777
547055
547354
547560
547881
548210
548525
548822
549176
549517
549775
550036
550310
550534
550961
551197
551411
551735
552052
552405
552678
553046
553248
553661
553956
554237
554453
554678
555014
555208
555478
555765
556090
556523
556853
557128
557372
557626
557825
558166
558364
558675
558942
559196
559449
559710
560051
560359
560613
560949
561271
561512
561829
562143
562372
562625
562909
563312
563614
563948
564284
564609
564906
565125
565328
565547
565804
566068
566381
566779
567111
567392
567636
567912
568187
568534
568861
569214
569453
569692
569991
570251
570555
570888
571135
571410
571650
571932
572248
572564
572878
573208
573457
573732
573964
574260
574508
574898
575254
575510
575814
576114
576373
576584
576865
577296
577622
577857
578155
578531
578806
579127
579393
579653
579905
580197
580532
580802
581117
581374
581733
581950
582318
582531
582807
583081
583393
583589
583915
584228
584457
584712
584977
585200
585459
585683
585994
586308
586639
587011
587232
587477
587708
588098
588310
588629
588905
589145
589467
589744
589966
590254
590547
590851
591115
591392
591604
591937
592297
592634
592931
593234
593530
593888
594184
594445
594738
595043
595394
595703
595955
596252
596598
596914
597166
597534
597805
598063
598280
598538
598819
599040
599315
599570
599854
600061
600344
600761
601099
601400
601690
601959
602289
602554
602828
603116
603324
603661
603976
604255
604593
604862
605286
605566
605862
606169
606388
606666
606927
607402
607788
608095
608422
608640
608956
609391
609701
609964
610247
610578
610866
611200
611458
611761
612090
612368
612750
612967
613226
613502
613804
614094
614384
614682
615052
615365
615615
615826
616100
616384
616684
616991
617274
617542
617795
618237
618487
618726
619027
619322
619622
619892
620239
620547
620758
621071
621289
621561
621774
622026
622289
622513
622797
623048
623325
623648
623919
624216
624506
624816
625108
625389
625707
625914
626224
626516
626806
627110
627332
627659
627991
628192
628577
628773
629047
629327
629604
629833
630049
630351
630666
630962
631250
631547
631843
632148
632437
632729
633033
633324
633615
633910
634198
634428
634714
634992
635413
635714
635933
636196
636466
636787
637067
637504
637808
638109
638364
638752
638991
639212
639579
639806
640171
640468
640790
641083
641298
641669
641977
642312
642606
642845
643201
643426
643652
643983
644339
644648
644931
645227
645447
645760
646066
646267
646561
646834
647144
647439
647881
648129
648399
648691
648836
649175
649449
649738
