221
443
603
924
1242
1430
1805
2064
2357
2519
2826
3064
3526
3798
4129
4489
4839
5092
5355
5537
5849
6099
6351
6512
6880
7216
7512
7689
8072
8302
8546
8817
9247
9515
9786
10103
10375
10642
10816
11126
11384
11679
11852
12148
12391
12743
13026
13205
13497
13737
13999
14244
14543
14803
14967
15334
15567
15834
16085
16539
16927
17198
17428
17683
17911
18206
18465
18758
19071
19267
19638
19869
20148
20297
20653
20911
21243
21490
21756
21980
22237
22399
22731
22993
23328
23765
24105
24361
24601
24880
25197
25381
25701
25949
26182
26342
26620
26868
27146
27311
27691
27957
28185
28413
28567
29059
29324
29630
29948
30121
30427
30661
30879
31124
31547
31793
32161
32436
32613
32992
33260
33431
33749
34012
34278
34520
34677
34969
35228
35671
35930
36201
36391
36769
37001
37243
37403
37850
38100
38423
38692
38941
39245
39560
39718
40017
40264
40506
40683
41018
41343
41567
41781
41952
42334
42654
42827
43128
43363
43589
43807
44042
44336
44509
44840
45113
45295
45618
45864
46153
46316
46635
46906
47147
47397
47561
47866
48133
48304
48569
48847
49155
49335
49626
49848
50067
50228
50567
51057
51378
51545
51843
52134
52303
52599
52870
53112
53459
53729
53982
54254
54620
54867
55103
55277
55621
55869
56144
56357
56649
56894
57351
57610
57841
58018
58343
58572
58810
58969
59262
59496
59776
60037
60457
60692
60939
61096
61416
61724
61896
62352
62638
62801
63126
63363
63593
63842
64012
64301
64539
64769
64926
65243
65469
65721
65890
66288
66743
67044
67207
67513
67761
68037
68213
68504
68984
69315
69558
70002
70325
70560
70894
71192
71358
71696
72013
72293
72577
72757
73108
73343
73595
73763
74091
74610
74893
75063
75359
75600
75824
76048
76304
76562
76760
77117
77397
77676
77849
78108
78321
78561
78734
79056
79306
79675
79942
80116
80434
80653
80882
81196
81370
81717
82047
82209
82531
82765
82987
83242
83412
83744
83966
84265
84562
84717
85053
85298
85552
85731
86035
86280
86510
86671
86964
87220
87570
87749
88108
88337
88596
88758
89170
89327
89669
89924
90341
90588
90818
91069
91291
91502
91725
91966
92250
92512
92678
92976
93194
93415
93591
93984
94236
94479
94645
94975
95204
95456
95723
95959
96189
96364
96715
96947
97218
97505
97668
97998
98231
98446
98684
98872
99168
99372
99660
99909
100128
100302
100602
100889
101062
101422
101667
101899
102113
102292
102593
102868
103052
103354
103613
103891
104054
104370
104650
104817
105182
105509
105678
106101
106338
106548
106771
106944
107246
107491
107728
107891
108179
108486
108649
108942
109574
109807
110055
110216
110516
110728
111084
111346
111637
111810
112185
112461
112617
112875
113110
113377
113560
113853
114093
114342
114622
114986
115209
115447
115706
115929
116158
116338
116611
116834
117144
117641
117946
118119
118469
118706
118935
119238
119470
119700
119866
120223
120473
120770
121089
121242
121546
121802
122047
122293
122570
122966
123404
123634
123882
124346
124587
124902
125322
125628
125912
126083
126434
126660
126880
127119
127291
127619
128043
128321
128494
128865
129087
129313
129575
129810
130076
130307
130546
130734
131100
131368
131546
131875
132199
132416
132640
132888
133057
133363
133799
134028
134241
134401
134675
135128
135407
135683
135855
136186
136398
136625
136778
137077
137323
137571
137739
138071
138351
138514
138813
139036
139362
139586
139816
140037
140359
140594
140800
140975
141278
141619
141931
142113
142482
142710
142940
143163
143326
143619
143891
144132
144354
144527
144809
145078
145247
145566
145851
146032
146405
146632
146870
147099
147305
147583
147736
148090
148322
148553
148795
149019
149258
149426
149743
150003
150193
150525
150811
151106
151263
151599
151842
152160
152333
152695
152954
153135
153397
153650
153872
154096
154268
154592
154822
155111
155366
155583
155833
156138
156296
156671
156935
157187
157406
157589
157848
158056
158287
158620
158845
159102
159345
159590
159820
160047
160256
160475
160700
160879
161281
161541
161770
161955
162208
162425
162641
162827
163126
163362
163627
163924
164082
164429
164671
164843
165166
165450
165678
165919
166088
166447
166680
166930
167113
167446
167701
167932
168280
168517
168745
168909
169219
169439
169670
169840
170160
170426
170663
170937
171340
171675
171976
172152
172543
172793
173026
173261
173585
173885
174062
174440
174732
174903
175194
175423
175714
175966
176292
176539
176802
177035
177325
177726
178005
178201
178560
178815
179054
179358
179582
179828
179984
180300
180565
180832
181014
181354
181586
181845
182154
182317
182659
182956
183134
183496
183926
184166
184380
184638
184890
185136
185393
185561
185977
186238
186494
186671
186968
187271
187443
187827
188056
188258
188470
188644
188937
189177
189419
189588
189876
190117
190370
190527
190789
191075
191258
191621
191870
192142
192304
192598
192845
193177
193431
193700
193886
194134
194381
194686
194943
195170
195394
195568
195872
196106
196349
196522
196862
197128
197294
197575
197874
198059
198374
198611
198809
199012
199255
199446
199679
199858
200234
200484
200698
200867
201172
201445
201609
201976
202257
202504
202780
202952
203226
203442
203647
203829
204092
204430
204713
204940
205158
205324
205611
205880
206043
206359
206652
206901
207088
207367
207589
207810
207980
208379
208601
208876
209044
209341
209600
209771
210022
210276
210507
210776
211061
211369
211533
211851
212095
212339
212520
212769
212998
213253
213428
213816
214081
214246
214598
214826
215162
215408
215651
215881
216049
216317
216722
216994
217167
217529
217797
218050
218224
218495
218722
218956
219207
219426
219708
219881
220227
220584
220831
221089
221269
221628
221884
222129
222352
222524
222815
223034
223258
223434
223706
224051
224325
224564
224790
224947
225239
225538
225817
226049
226335
226568
226865
227314
227689
227955
228206
228446
228728
228931
229149
229404
229607
229909
230176
230402
230700
230926
231088
231433
231648
232118
232381
232737
232973
233212
233379
233668
233893
234134
234309
234690
234924
235184
235568
235821
236082
236250
236577
236857
237038
237343
237689
237949
238222
238380
238713
238941
239208
239376
239691
239917
240152
240376
240582
240822
241000
241348
241629
241806
242090
242311
242522
242729
242915
243226
243497
243694
243994
244236
244460
244687
244904
245173
245346
245625
245864
246103
246278
246586
246791
247050
247338
247628
247806
248118
248390
248552
248869
249146
249320
249607
249859
250193
250476
250643
250913
251151
251373
251582
251763
252129
252350
252620
252816
253015
253225
253391
253716
254006
254179
254482
254752
254915
255196
255596
255851
256116
256292
256615
256892
257066
257346
257559
257788
258012
258254
258502
258746
258923
259184
259404
259655
259882
260117
260295
260610
260833
261079
261243
261526
261777
261945
262268
262560
262738
263070
263303
263552
263729
264130
264367
264615
264800
265092
265354
265577
265806
265966
266270
266500
266756
266985
267209
267468
267713
267908
268144
268369
268707
268984
269217
269393
269691
269939
270166
270329
270614
270822
271069
271233
271593
272010
272419
272657
272893
273063
273339
273801
273979
274346
274828
275189
275562
275815
276057
276305
276475
276758
276990
277230
277466
277699
277873
278169
278485
278748
278978
279215
279574
280052
280544
280813
280969
281284
281535
281770
282127
282400
282581
282796
282930
283283
283538
283762
284000
284163
284557
284797
285209
285426
285801
286046
286280
286561
286864
287036
287461
287767
287995
288235
288496
288663
289162
289413
289579
289873
290115
290519
290780
291029
291277
291442
291737
291892
292218
292623
292876
293173
293465
293634
294137
294377
294591
294830
294997
295292
295540
295769
296111
296368
296537
296873
297272
297609
297934
298396
298752
298973
299289
299496
299780
300019
300244
300410
300702
300972
301134
301526
301771
302025
302203
302483
302702
302933
303094
303242
303431
303738
304113
304467
304722
304948
305193
305501
305668
305993
306357
306596
306816
307028
307188
307477
307703
307972
308417
308712
308872
309224
309470
309692
309987
310217
310482
310895
311144
311421
311583
311846
312073
312346
312518
312856
313088
313292
313472
313739
313951
314184
314371
314665
314924
315217
315439
315765
316015
316249
316418
316718
316971
317274
317419
317769
317979
318172
318455
318692
318937
319119
319435
319674
319910
320146
320411
320663
320947
321213
321463
321629
321988
322213
322472
322712
322933
323161
323342
323699
323977
324139
324488
324741
325057
325283
325509
325797
325969
326255
326564
326719
327140
327421
327655
327876
328045
328548
329035
329374
329700
329960
330202
330429
330648
330806
331102
331369
331540
332038
332298
332528
332709
333077
333287
333557
333810
334051
334302
334472
334879
335092
335320
335579
335811
336104
336381
336619
336856
337108
337469
337760
337923
338263
338504
338751
338983
339142
339454
339666
339906
340137
340384
340653
340892
341167
341331
341683
341922
342306
342544
342801
342970
343306
343536
343828
344084
344251
344522
344744
344965
345149
345447
345693
345933
346154
346394
346614
346830
347079
347469
347671
347933
348107
348574
348870
349040
349351
349621
349784
350105
350377
350540
350863
351114
351325
351623
351866
352173
352386
352596
352795
353007
353254
353529
353811
353981
354307
354532
354757
354919
355268
355498
355758
355985
356212
356401
356663
356898
357118
357283
357618
358017
358354
358595
358808
359043
359201
359470
359752
359920
360291
360534
360777
360938
361271
361513
361911
362188
362352
362675
362996
363216
363472
363639
363934
364179
364407
364669
364837
365151
365391
365557
365879
366184
366347
366696
366932
367227
367381
367681
367917
368096
368382
368552
369009
369264
369544
369699
369998
370232
370468
370650
371010
371304
371475
371841
372063
372285
372529
372706
373043
373368
373535
373908
374165
374466
374739
374998
375177
375530
375870
376105
376413
376568
376866
377105
377339
377571
377745
378046
378431
378654
378896
379092
379365
379604
379852
380037
380324
380551
380777
380945
381304
381547
381794
381959
382235
382652
382883
383110
383343
383519
383826
384224
384490
384726
384962
385209
385368
385710
385976
386268
386436
386778
387019
387185
387514
387914
388244
388504
388732
388974
389151
389483
389706
389960
390125
390508
390764
391005
391189
391513
391748
391992
392169
392722
393199
393528
393793
394072
394240
394599
395056
395314
395473
395742
396140
396397
396641
396877
397187
397601
397866
398032
398430
398913
399164
399437
399600
399935
400176
400437
400603
400910
401147
401608
401915
402134
402360
402664
402833
403162
403418
403644
403868
404034
404340
404623
404781
405073
405317
405584
405762
406132
406369
406614
406779
407188
407480
407926
408359
408610
408772
409071
409294
409536
409713
410073
410397
410560
410901
411132
411367
411539
411926
412168
412419
412592
412920
413208
413372
413908
414154
414387
414695
414906
415188
415425
415664
415913
416079
416452
416602
416931
417188
417414
417642
417927
418198
418459
418755
419075
419309
419575
419980
420215
420467
420736
420902
421200
421419
421704
422009
422174
422527
422791
423052
423216
423534
423762
423983
424221
424381
424707
424968
425146
425487
425736
425973
426139
426505
426832
427077
427308
427562
427717
428035
428343
428594
428997
429336
429652
429901
430138
430429
430736
430898
431232
431484
431732
431912
432182
432404
432733
432965
433186
433385
433842
434279
434510
434737
435164
435407
435669
435976
436223
436510
436693
437007
437169
437455
437692
437917
438109
438411
438653
439072
439411
439717
439894
440219
440625
440845
441070
441238
441501
441763
441947
442253
442502
442780
442939
443244
443482
443802
444058
444300
444580
444742
445034
445299
445473
445774
446200
446463
446730
447144
447377
447661
447821
448382
448820
449097
449260
449573
449886
450045
450354
450688
450931
451174
451346
451640
451962
452122
452454
452706
453197
453675
453899
454264
454682
454927
455190
455364
455779
456021
456270
456433
456838
457312
457577
457864
458024
458426
458669
458894
459239
459561
459822
459988
460277
460588
460748
461064
461421
461671
461931
462101
462395
462611
462857
463028
463337
463629
463890
464062
464351
464577
464849
465003
465336
465579
465830
466138
466401
466658
466910
467240
467733
468299
468548
468714
469064
469285
469500
469970
470392
470627
470883
471046
471411
471811
472031
472266
472507
472680
472993
473225
473445
473699
473935
474160
474393
474684
474950
475283
475498
475721
476010
476266
476676
477127
477387
477565
477827
478070
478388
478639
479069
479329
479709
480139
480372
480603
480929
481192
481507
481841
481996
482467
482734
483055
483328
483869
484113
484433
484661
484903
485382
485852
486080
486380
486620
486848
487119
487369
487622
487934
488382
488638
488802
489229
489503
489752
489925
490226
490415
490785
491010
491326
491576
491849
492304
492563
492728
493029
493259
493516
493786
494052
494332
494572
494915
495238
495493
495774
496111
496377
496676
496839
497150
497400
497638
497952
498394
498705
498867
499285
499734
499997
500286
500636
500924
501353
501589
502021
502572
502818
503078
503236
503608
504010
504335
504664
504869
505247
505491
505782
506287
506555
506734
507061
507408
507650
507999
508341
508624
509048
509328
509588
509760
510106
510426
510587
510882
511138
511449
511623
511920
512177
512338
512661
512934
513237
513520
513825
514115
514350
514647
514813
515195
515675
515932
516220
516536
516797
517068
517610
517954
518212
518477
518735
518982
519220
519471
519639
519986
520246
520486
521013
521340
521610
521868
522051
522374
522598
522838
523061
523292
523688
524037
524279
524580
524842
525070
525328
525721
525984
526154
526581
527109
527429
527659
527830
528257
528536
528775
528958
529222
529446
529677
529927
530151
530380
530621
530794
531140
531399
531682
531959
532276
532590
532895
533191
533433
533663
533901
534226
534545
534713
535075
535333
535501
536029
536277
536607
536864
537304
537705
538026
538267
538539
538840
539096
539441
539710
539956
540201
540474
540713
540913
541276
541528
541790
542034
542273
542673
543007
543286
543581
543884
544146
544329
544687
545003
545245
545518
545829
546176
546434
546666
546962
547325
547572
547927
548259
548512
548784
549020
549283
549588
549837
550239
550520
550691
551207
551447
551608
551979
552265
552571
552827
553243
553504
553909
554204
554381
554707
555026
555258
555529
555763
556074
556329
556623
556945
557193
557438
557733
557964
558213
558542
558847
559110
559511
559800
559957
560316
560577
560839
561159
561449
561620
561914
562346
562594
562833
563144
563645
563893
564118
564301
564567
564856
565123
565442
565686
566003
566235
566458
566679
566842
567154
567616
568030
568405
568652
568875
569135
569425
569671
569912
570187
570512
570763
571005
571425
571790
572073
572334
572601
572826
572979
573293
573542
573800
574084
574354
574751
574994
575288
575555
575814
576138
576651
576962
577184
577424
577647
577885
578123
578460
578708
578939
579168
579416
579691
579945
580323
580786
581032
581264
581488
581792
582050
582363
582631
582870
583099
583321
583534
583692
584025
584353
584802
585053
585231
585486
585699
585912
586138
586369
586540
586925
587158
587396
587649
587971
588218
588609
588873
589044
589417
589679
589970
590221
590615
590906
591082
591472
591699
591921
592176
592437
592829
593091
593260
593592
593824
594048
594295
594527
594761
595001
595451
595747
595980
596247
596486
596799
597086
597332
597665
597983
598252
598523
598764
598983
599212
599474
599768
600027
600297
600532
600797
600934
601279
601538
601862
602103
602356
602581
602809
603042
603283
603705
603970
604230
604472
604733
604986
605219
605452
605731
605979
606304
606563
606796
607016
607272
607526
607765
608155
608399
608637
608886
609198
609478
609725
609891
610244
610535
610790
611068
611403
611804
612146
612405
612693
613010
613244
613474
613693
613939
614368
614632
614926
615191
615742
616141
616407
616770
617248
617693
617934
618170
618538
618788
618965
619329
619668
619888
620120
620344
620550
620855
621115
621350
621789
622035
622275
622705
622960
623120
623448
623764
624052
624346
624579
624825
625105
625367
625661
626140
626449
626759
626990
627410
627682
628030
628269
628529
628765
629029
629288
629555
629814
630154
630443
630686
630977
631296
631525
631774
632077
632347
632657
632897
633145
633414
633717
633955
634331
634677
634923
635087
635494
635901
636149
636418
636655
636946
637436
637701
638024
638268
638522
638789
639139
639549
639852
640071
640305
640578
640867
641164
641440
641689
641986
642267
642663
642973
643266
643569
643851
644095
644317
644550
644792
645054
645315
645605
645836
646077
646331
646637
647069
647321
647585
647968
648291
648537
648764
648983
649237
649531
649810
