161
434
727
1062
1368
1653
1937
2224
2500
2794
3095
3403
3696
3988
4276
4544
4821
5012
5109
5443
5606
5784
6086
6298
6637
6822
7198
7414
7826
8026
8396
8582
8932
9130
9505
9710
10099
10305
10657
10843
11200
11392
11778
11991
12405
12715
13014
13289
13575
13898
14238
14569
14899
15191
15467
15755
16104
16479
16825
16997
17114
17395
17682
17997
18362
18673
19126
19410
19695
19903
20156
20751
21123
21439
21710
22000
22309
22628
22860
23285
23604
23893
24075
24474
24677
25111
25423
25736
26023
26305
26586
26889
27226
27557
27891
28171
28453
28737
29037
29354
29660
29871
30247
30535
30828
31129
31433
31737
31940
32329
32511
32891
33183
33482
33679
34118
34333
34723
34908
35293
35499
35938
36183
36599
36805
37184
37415
37882
38144
38592
38800
39172
39374
39839
40107
40570
40808
41219
41565
41999
42410
42763
43085
43390
43704
44077
44469
44808
45114
45417
45735
46056
46399
46644
47070
47275
47649
47863
48258
48569
48900
49222
49520
49791
50076
50375
50672
50997
51316
51617
51887
52083
52481
52689
53116
53318
53726
54011
54297
54519
54938
55262
55566
55878
56183
56386
56747
57029
57317
57607
57829
58190
58459
58726
58926
59330
59663
59990
60282
60557
60747
61118
61337
61788
62126
62428
62707
63301
63675
64005
64329
64636
64926
65224
65572
65865
66267
66601
66921
67215
67531
67873
68232
68547
68864
69162
69446
69654
70064
70412
70752
71061
71337
71615
71916
72212
72475
72876
73179
73458
73731
74031
74352
74705
74949
75349
75632
75913
76206
76542
76886
77212
77517
77816
78010
78391
78589
79002
79311
79615
79810
80166
80442
80726
81044
81391
81729
82010
82274
82466
82859
83078
83526
83870
84159
84428
84740
84952
85404
85717
86039
86318
86588
86882
87190
87531
87864
88224
88581
88885
89192
89526
89880
90223
90484
90927
91234
91544
91878
92235
92569
92899
93192
93488
93778
94089
94406
94708
94996
95281
95578
95796
96211
96518
96809
97096
97387
97678
97978
98299
98598
98899
99200
99492
99683
100066
100306
100702
101020
101329
101429
101608
101885
102165
102471
102780
103097
103387
103664
103938
104224
104541
104860
105163
105453
105653
106049
106356
106654
106979
107291
107469
107890
108181
108482
108773
109091
109412
109627
110004
110187
110570
110869
111185
111526
111840
112135
112396
112680
113005
113314
113622
113922
114215
114477
114751
115065
115388
115702
115872
115999
116301
116596
116873
117152
117458
117764
118054
118232
118653
118921
119184
119463
119787
119995
120402
120678
120943
121211
121485
121785
122125
122442
122738
123020
123298
123501
123881
124100
124494
124707
125078
125269
125630
125827
126215
126430
126850
127063
127429
127617
128001
128213
128745
128995
129412
129610
129985
130240
130827
131119
131549
131738
132104
132307
132761
133009
133500
133722
134139
134344
134761
134994
135491
135731
136140
136336
136727
136942
137356
137612
138089
138293
138665
138864
139265
139476
139931
140146
140713
141114
141326
141748
141966
142384
142580
142954
143166
143585
143795
144196
144432
144833
145029
145407
145627
146030
146241
146670
146871
147235
147434
148073
148458
148675
149064
149259
149630
149848
150247
150455
150868
151102
151502
151708
152103
152325
152744
152994
153411
153613
154196
154639
154870
155285
155593
156192
156534
156890
157065
157509
157817
158134
158437
158758
158970
159388
159574
159976
160287
160592
160903
161208
161425
161844
162152
162447
162746
163048
163260
163688
163987
164272
164564
164873
165190
165380
165826
166121
166401
166698
167004
167208
167625
167936
168255
168543
168838
169132
169337
169737
170055
170377
170663
170949
171248
171577
171900
172219
172524
172825
173123
173442
173775
174111
174434
174758
174975
175432
175644
176095
176315
176760
176970
177385
177622
178102
178373
178881
179106
179494
179701
180190
180433
180897
181115
181508
181704
182175
182442
182904
183131
183527
183716
184120
184357
184839
185054
185484
185699
186092
186293
186724
186971
187396
187614
188008
188200
188584
188932
189311
189645
189946
190233
190518
190822
191170
191518
191828
192131
192321
192711
192894
193308
193642
193955
194255
194535
194824
195003
195436
195822
196162
196349
196744
196959
197340
197687
198071
198396
198688
198979
199284
199606
199835
200270
200595
200896
201186
201407
201781
202094
202453
202805
203017
203375
203668
203977
204286
204629
204972
205263
205536
205732
206140
206342
206761
207076
207364
207637
207838
208224
208546
208853
209182
209490
209770
210056
210355
210670
210972
211174
211617
211811
212186
212488
212817
213135
213450
213745
214030
214307
214603
214923
215233
215528
215846
216144
216428
216717
217025
217340
217648
217974
218281
218567
218754
219168
219517
219855
220068
220461
220652
221042
221250
221695
221932
222372
222679
223005
223338
223665
223984
224190
224631
224923
225224
225543
225853
226173
226521
226849
227131
227418
227609
228041
228358
228675
228977
229263
229563
229892
230220
230526
230833
231136
231434
231739
232060
232382
232687
233005
233322
233633
233837
234252
234455
234885
235220
235517
235815
236116
236452
236780
237099
237401
237703
238008
238308
238625
238956
239273
239597
239911
240123
240534
240870
241184
241512
241842
242140
242347
242754
243106
243436
243648
244059
244282
244690
244918
245382
245605
246021
246322
246639
246971
247288
247612
247929
248237
248544
248854
249174
249482
249829
250161
250374
250764
250958
251368
251580
252014
252221
252613
252803
253213
253424
253843
254057
254475
254664
255048
255251
255676
255917
256322
256539
256953
257149
257530
257730
258141
258458
258786
259081
259357
259642
259964
260295
260618
260927
261227
261505
261709
262128
262470
262801
263114
263440
263738
263912
264346
264685
265001
265315
265624
265907
266204
266513
266919
267132
267592
267884
268174
268470
268788
269177
269521
269826
270119
270442
270776
271115
271466
271800
271960
272396
272711
273022
273347
273707
274050
274357
274651
274817
275274
275480
275992
276203
276601
276791
277229
277446
277923
278156
278580
278769
279177
279390
279818
280034
280491
280700
281084
281278
281685
281889
282336
282583
282984
283174
283573
283805
284284
284541
284981
285178
285565
285776
286237
286461
286892
287114
287509
287809
288112
288444
288765
289123
289352
289748
290045
290357
290688
291011
291344
291530
291927
292215
292526
292863
293185
293505
293808
294103
294405
294731
295042
295350
295655
295967
296260
296547
296848
297160
297490
297807
298118
298397
298689
298987
299302
299627
299940
300104
300532
300841
301151
301463
301773
302088
302391
302683
302977
303292
303601
303925
304257
304576
304862
305162
305484
305817
306164
306496
306820
307116
307449
307816
308173
308496
308810
308966
309418
309750
310111
310448
310782
311145
311460
311762
311957
312454
312784
313098
313418
313728
314034
314375
314735
315079
315379
315692
315998
316327
316679
317013
317318
317609
317940
318259
318584
318899
319112
319522
319824
320152
320464
320770
321095
321437
321761
322046
322362
322681
323008
323346
323672
323966
324246
324566
324890
325221
325543
325858
326150
326448
326786
327112
327443
327793
328147
328459
328764
329121
329465
329827
330206
330383
330838
331166
331552
331920
332292
332635
332942
333259
333693
334046
334413
334756
335069
335394
335752
336138
336470
336793
337109
337430
337754
338108
338449
338794
339125
339418
339724
340036
340395
340744
341066
341371
341529
341978
342303
342691
343008
343320
343607
343907
344222
344547
344885
345213
345539
345845
346132
346432
346750
347001
347407
347709
348000
348289
348602
348928
349283
349586
349889
350179
350477
350802
351131
351489
351803
352137
352451
352766
353084
353419
353764
354084
354404
354718
355030
355365
355801
356169
356463
356762
357074
357394
357722
358098
358424
358715
358919
359350
359687
360011
360358
360662
360974
361303
361630
361953
362277
362649
362956
363112
363575
363917
364241
364588
364934
365227
365381
365846
366208
366553
366887
367218
367515
367839
368186
368517
368832
369170
369490
369805
370118
370323
370772
370982
371452
371634
372038
372333
372733
373070
373398
373725
374021
374359
374589
375102
375446
375764
376078
376411
376803
377199
377546
377869
378216
378551
378914
379306
379580
379995
380327
380637
380961
381317
381651
382003
382311
382630
382928
383278
383646
383993
384298
384597
384897
385112
385560
385775
386211
386521
386831
387142
387452
387778
387960
388421
388732
389031
389347
389656
390003
390362
390706
390998
391291
391592
391914
392267
392599
392904
393203
393529
393858
394191
394523
394869
395187
395492
395822
396159
396497
396850
397219
397537
397832
398169
398493
398834
399197
399521
399791
400134
400558
400946
401287
401616
401919
402221
402408
402967
403328
403661
403980
404291
404615
404972
405318
405642
405971
406277
406574
406884
407228
407591
407927
408225
408511
408818
409143
409347
409842
410163
410453
410759
411073
411430
411786
412009
412423
412618
413031
413343
413672
414006
414353
414678
414964
415117
415578
415939
416305
416640
416947
417239
417574
417941
418191
418684
419019
419317
419571
419979
420323
420714
421056
421384
421707
422033
422396
422805
423213
423555
423874
424207
424566
424988
425405
425730
426042
426364
426712
427091
427497
427829
428137
428479
428837
429186
429530
429866
430178
430499
430834
431169
431502
431860
432183
432489
432802
433131
433458
433790
434125
434431
434730
435059
435292
435746
436052
436371
436654
436959
437285
437605
437917
438093
438869
439188
439491
439811
440117
440320
440793
441107
441412
441612
442104
442483
442818
443131
443442
443750
444071
444303
444751
445064
445385
445762
446137
446471
446795
447002
447383
447710
448060
448392
448712
448916
449310
449624
449981
450331
450651
450763
450958
451250
451539
451848
452174
452501
452688
453097
453431
453719
453988
454289
454510
454918
455134
455514
455797
456056
456340
456689
457013
457344
457639
457922
458185
458477
458818
459092
459469
459752
460036
460319
460606
460903
461227
461548
461837
462127
462410
462595
462988
463311
463678
464041
464362
464556
464919
465155
465643
465925
466371
466666
466938
467233
467632
467953
468558
468871
469166
469518
469937
470325
470621
471028
471218
471623
471950
472498
472899
473195
473488
473785
474120
474423
474917
475248
475518
475704
476144
476485
476813
477125
477433
477707
477918
478328
478544
478969
479180
479603
479896
480204
480498
480794
481093
481401
481730
482020
482242
482617
482940
483276
483601
483892
484175
484461
484760
485068
485377
485693
485873
486269
486584
486907
487213
487522
487850
488142
488450
488782
489126
489441
489758
490137
490464
490797
491115
491446
491748
492078
492439
492747
492992
493430
493845
494230
494574
494882
495205
495570
495928
496274
496605
496906
497196
497539
497921
498274
498603
498894
499176
499476
499812
500160
500498
500795
500974
501403
501712
502038
502378
502701
503010
503188
503608
503910
504112
504547
504899
505217
505509
505686
506048
506261
506748
506983
507388
507572
507953
508158
508602
508844
509268
509470
509856
510056
510469
510688
511172
511389
511818
512023
512429
512626
513094
513353
513806
514029
514427
514637
515051
515317
515899
516148
516543
516760
517219
517472
518009
518265
518667
518874
519328
519579
520075
520319
520722
520918
521357
521594
522051
522281
522710
522916
523330
523564
523980
524189
524608
524826
525221
525416
525851
526058
526488
526819
527127
527395
527679
527902
528299
528646
528971
529271
529542
529857
530199
530451
530832
531070
531140
531429
531717
532024
532251
532644
532979
533302
533493
533875
534059
534501
534830
535033
535486
535794
536058
536396
536784
537129
537451
537758
538058
538269
538700
539094
539434
539726
539868
540094
540408
540741
541078
541428
541737
541967
542359
542562
542956
543279
543640
543979
544279
544548
544866
545168
545498
545836
546146
546436
546732
547037
547343
547657
547977
548287
548570
548858
549172
549469
549755
550090
550414
550720
550892
551295
551591
551767
552221
552556
552847
553127
553421
553689
553876
554362
554681
554980
555263
555565
555873
556202
556514
556848
557043
557466
557734
558083
558425
558763
558965
559406
559593
559991
560312
560671
561043
561364
561666
561963
562282
562622
562991
563352
563649
563854
564242
564589
564929
565254
565504
565893
566194
566495
566830
567049
567476
567815
568114
568391
568679
569010
569334
569656
569976
570261
570543
570852
571191
571518
571824
572133
572406
572714
573019
573361
573671
573990
574324
574630
574904
575192
575511
575697
576151
576481
576775
577057
577360
577639
577860
578359
578561
578975
579169
579586
579915
580269
580589
580920
581119
581507
581702
582141
582358
582804
583030
583428
583614
584051
584286
584769
585092
585392
585676
585970
586183
586623
586854
587253
587554
587862
588164
588329
588770
589095
589403
589705
589993
590278
590569
590839
591230
591545
591830
592009
592395
592589
593013
593335
593642
593923
594216
594515
594687
595118
595435
595745
596028
596334
596619
596916
597216
597414
597880
598077
598456
598744
599037
599349
599573
600013
600198
600602
600907
601235
601564
601796
602186
602407
602814
603115
603424
603745
603952
604400
604625
605030
605215
605642
605974
606294
606652
606961
607237
607530
607856
608185
608465
608825
609129
609419
609721
610058
610267
610683
610887
611321
611513
611929
612128
612561
612760
613193
613414
613791
614088
614411
614754
615074
615375
615556
615954
616266
616589
616918
617230
617535
617718
618138
618443
618747
619054
619366
619674
619991
620267
620560
620744
621197
621519
621836
622141
622426
622609
623049
623402
623727
624042
624360
624663
624868
625319
625642
625963
626258
626586
626884
627215
627559
627905
628235
628546
628842
629136
629440
629767
630106
630417
630709
631009
631323
631501
631982
632210
632609
632863
633189
633495
633703
634111
634422
634755
635046
635341
635620
635930
636242
636560
636878
637154
637447
637623
638069
638400
638719
639011
639221
639586
639783
640176
640476
640796
641110
641414
641606
641982
642171
642588
642800
643212
643517
643802
644095
644399
644738
644941
645383
645683
645973
646272
646579
646911
647098
647514
647847
648052
648465
648778
649109
649332
649762
