181
528
848
1167
1513
1834
2462
2790
3088
3420
3755
4058
4386
4721
5036
5378
5741
6061
6416
6800
7122
7481
7827
8138
8479
8818
9137
9498
9854
10183
10539
10893
11225
11583
11917
12236
12590
12942
13262
13618
13949
14283
14627
14969
15288
15638
15978
16305
16652
17019
17353
17708
18049
18371
18716
19055
19367
19721
20055
20374
20731
21069
21384
21732
22061
22378
22727
23075
23397
23747
24084
24405
24769
25121
25447
25811
26157
26493
26841
27195
27547
27874
28205
28558
28888
29235
29594
29927
30281
30637
30975
31325
31693
32020
32360
32704
33027
33358
33712
34027
34653
34976
35589
36209
36842
37445
38057
38655
39265
39864
40459
41060
41649
42222
42788
43358
43937
44527
45114
45692
46257
46818
47399
48010
48599
49184
49783
50373
50971
51560
52144
52599
52996
53243
53393
53780
54110
54442
54771
55091
55427
55789
56118
56480
56844
57193
57569
57932
58263
58605
58937
59266
59607
59960
60295
60658
61029
61371
61748
62120
62478
62855
63230
63574
63940
64281
64621
65004
65352
65702
66057
66394
66732
67098
67454
67825
68200
68549
68894
69245
69586
69935
70283
70635
70985
71335
71695
72036
72387
72745
73083
73434
73793
74123
74488
74838
75177
75532
75899
76233
76592
76955
77294
77653
78011
78337
78681
79029
79345
79686
80033
80342
80672
81026
81345
81677
82037
82372
82691
83046
83376
83693
84042
84376
84686
85037
85368
85679
86010
86337
86644
86978
87325
87650
87992
88364
88715
89055
89411
89753
90083
90427
90759
91083
91424
91787
92114
92457
92817
93168
93508
93868
94193
94523
94868
95208
95528
95886
96208
96541
96887
97234
97558
97917
98262
98579
98923
99269
99598
99932
100286
100604
100945
101284
101597
101957
102308
102631
102986
103328
103650
103998
104330
104652
105013
105355
105683
106044
106390
106721
107086
107428
107765
108121
108463
108791
109141
109476
109809
110153
110491
110823
111172
111532
111896
112220
112568
112920
113249
113595
113947
114266
114618
114965
115287
115620
115962
116268
116604
116935
117254
117598
117967
118278
118625
118957
119588
119920
120530
121159
121793
122401
123029
123617
124212
124797
125390
125984
126571
127170
127761
128357
128938
129534
130143
130742
131334
131917
132504
133099
133711
134329
134961
135589
136197
136790
137381
137959
138547
139136
139727
140325
140912
141497
142076
142650
143212
143786
144378
144963
145554
146155
146740
147329
147948
148542
149158
149751
150330
150923
151509
152129
152723
153336
153948
154537
155140
155716
156291
156871
157456
158056
158632
159213
159780
160366
160961
161535
162134
162706
163302
163893
164491
165112
165724
166323
166942
167554
168170
168783
169426
170056
170679
171324
171937
172531
173130
173723
174331
174938
175544
176151
176738
177322
177919
178508
179115
179709
180293
180888
181482
182114
182722
183345
183947
184558
185168
185793
186387
187011
187631
188247
188856
189438
190039
190639
191244
191861
192441
193044
193621
194228
194801
195386
195961
196543
197143
197749
198350
198939
199530
200118
200689
201265
201878
202467
202779
203083
203402
203759
204098
204451
204824
205179
205516
205887
206225
206546
206876
207203
207511
207850
208172
208474
208803
209150
209462
209803
210146
210460
210799
211145
211463
211796
212146
212490
212820
213207
213569
213922
214291
214653
215021
215398
215763
216107
216446
216793
217130
217490
217859
218203
218573
218947
219307
219671
220032
220366
220720
221073
221401
221756
222105
222427
222781
223139
223463
223821
224158
224477
224823
225157
225471
225826
226174
226503
226836
227184
227520
227847
228180
228498
228804
229130
229461
229794
230115
230483
230834
231165
231543
231928
232262
232614
232973
233299
233651
234011
234331
234677
235029
235346
235691
236036
236344
236679
237027
237350
237669
237998
238317
238629
238965
239298
239632
239956
240323
240676
241006
241359
241717
242047
242399
242754
243087
243447
243805
244128
244475
244817
245138
245462
245810
246140
246460
246807
247153
247469
247818
248156
248479
248815
249156
249469
249810
250149
250471
250808
251160
251475
251802
252140
252483
252805
253169
253519
253854
254193
254543
254874
255216
255558
255887
256229
256559
257203
257520
257839
258168
258506
258834
259193
259550
259891
260237
260591
260935
261274
261626
261962
262285
262628
262959
263272
263625
263965
264274
264620
264973
265306
265650
266000
266342
266683
267048
267403
267750
268107
268450
268789
269130
269466
269784
270112
270440
270756
271083
271406
271722
272052
272389
272712
273083
273436
273784
274132
274483
274815
275163
275486
275804
276129
276465
276785
277149
277512
277865
278222
278592
278952
279282
279630
279988
280321
280663
281012
281343
281680
282015
282347
282674
283036
283387
283729
284078
284427
284762
285112
285454
285784
286109
286447
286772
287105
287443
287766
288383
288999
289636
290250
290883
291487
292079
292655
293228
293816
294385
294988
295575
296157
296741
297320
297916
298518
299106
299696
300268
300840
301417
301989
302592
303180
303817
304428
305037
305637
306216
306816
307397
307985
308570
309175
309797
310385
311003
311614
312230
312843
313461
314068
314667
315239
315837
316430
317034
317641
318253
318866
319462
320055
320668
321286
321885
322491
323088
323714
324328
324938
325558
326144
326747
327343
327939
328542
329133
329745
330342
330944
331556
332155
332750
333352
333933
334533
335117
335738
336338
336944
337572
338174
338798
339405
340017
340615
341197
341788
342390
342993
343621
344216
344831
345432
346021
346608
347211
347819
348421
349026
349632
350245
350833
351431
352006
352586
353176
353759
354361
354941
355550
356127
356709
357300
357881
358490
359090
359721
360341
360967
361585
362173
362764
363358
363961
364555
365160
365752
366353
366949
367543
368146
368753
369362
369969
370588
371229
371839
372444
373025
373610
374210
374825
375460
376065
376380
376677
377029
377371
377690
378070
378455
378817
379217
379578
379933
380300
380645
380991
381350
381694
382027
382368
382706
383040
383380
383724
384043
384400
384754
385100
385449
385799
386131
386492
386851
387195
387549
387898
388226
388563
388890
389208
389528
389859
390180
390531
390901
391248
391602
391968
392313
392661
393030
393361
393710
394072
394413
394771
395151
395488
395832
396170
396486
396821
397165
397475
397823
398185
398512
398863
399245
399592
399928
400279
400623
400961
401311
401670
402005
402376
402734
403077
403414
403744
404068
404407
404747
405063
405388
405725
406051
406386
406756
407106
407431
407778
408125
408436
408785
409129
409441
409752
410082
410400
410728
411075
411431
411767
412143
412495
412844
413195
413544
413874
414224
414574
414915
415266
415613
415944
416292
416634
416967
417307
417659
418007
418333
418673
419030
419346
419704
420089
420426
420818
421190
421531
421870
422209
422526
422890
423255
423595
423969
424333
424677
425045
425391
425721
426061
426390
426729
427067
427402
427763
428117
428458
428828
429179
429506
429870
430234
430582
430972
431347
431706
432068
432411
432751
433066
433387
433693
434288
434895
435475
436070
436667
437263
437877
438485
439083
439690
440276
440901
441482
442096
442690
443281
443871
444439
445021
445604
446188
446771
447350
447959
448584
448892
449201
449568
449943
450301
450729
451122
451491
451860
452199
452553
452905
453251
453580
453906
454225
454576
454916
455251
455616
455974
456314
456673
457009
457331
457683
458001
458326
458646
459237
459831
460418
461003
461595
462176
462762
463355
463957
464564
465165
465775
466372
466941
467521
468107
468710
469324
469945
470593
471208
471839
472447
473045
473636
474223
474810
475415
476007
476612
477210
477803
478413
479014
479631
480238
480850
481488
482087
482712
483310
483929
484535
485140
485740
486342
486922
487509
488090
488674
489288
489906
490524
491141
491760
492378
492988
493596
494215
494821
495416
496013
496594
497204
497806
498439
499066
499687
500312
500896
501506
502101
502690
503282
503873
504471
505087
505704
506323
506955
507578
507902
508211
508532
508879
509208
509537
509887
510215
510562
510935
511277
511634
512002
512345
512706
513073
513410
513759
514110
514433
514786
515144
515478
515838
516198
516546
516904
517275
517622
517994
518350
518713
519062
519410
519779
520118
520479
520834
521192
521555
521909
522271
522635
522995
523356
523729
524078
524432
524793
525137
525510
525890
526234
526598
526975
527326
527691
528043
528378
528740
529104
529436
529801
530149
530479
530827
531170
531485
531834
532174
532491
532849
533195
533518
533870
534213
534540
534896
535236
535566
535935
536286
536613
536977
537316
537655
538000
538375
538727
539080
539444
539802
540147
540523
540877
541255
541647
542003
542366
542741
543088
543455
543807
544137
544496
544861
545204
545589
545959
546301
546677
547015
547354
547716
548054
548389
548743
549083
549437
549810
550185
550536
550915
551301
551653
552026
552396
552738
553095
553451
553778
554124
554475
554818
555161
555533
555865
556193
556530
556845
557186
557556
557877
558245
558625
558961
559334
559670
559997
560318
560672
560987
561346
561694
562019
562389
562769
563101
563492
563848
564188
564563
564907
565250
565589
565911
566233
566582
566918
567259
567622
567973
568306
568686
569039
569387
569746
570092
570433
570781
571137
571467
571804
572145
572467
572812
573168
573490
573843
574193
574530
574879
575239
575573
575931
576308
576650
577009
577368
577692
578029
578354
578988
579312
579612
579952
580299
580618
580979
581354
581695
582052
582417
582750
583113
583458
583791
584160
584515
584839
585186
585514
585830
586172
586513
586835
587196
587542
587876
588250
588598
588945
589299
589649
589981
590346
590690
591030
591373
591710
592041
592374
592714
593045
593392
593749
594083
594427
594791
595130
595459
595828
596197
596535
596913
597273
597608
597990
598340
598674
599023
599349
599673
600021
600364
600714
601059
601415
601754
602102
602459
602806
603158
603502
603848
604196
604533
604876
605208
605543
605874
606209
606563
606904
607250
607608
607946
608301
608668
609005
609344
609688
610034
610367
610726
611073
611405
611762
612120
612454
612815
613154
613488
613850
614205
614562
614924
615303
615663
616030
616393
616742
617089
617437
617782
618123
618481
618817
619151
619501
619839
620181
620554
620887
621240
621604
621947
622302
622669
623007
623348
623704
624050
624392
624746
625098
625433
625788
626129
626467
626802
627137
627465
627806
628157
628491
628822
629176
629550
629886
630252
630605
630929
631282
631632
631951
632298
632622
633252
633581
633891
634242
634586
634908
635262
635623
635963
636346
636708
637058
637433
637788
638135
638494
638826
639162
639514
639854
640205
640560
640922
641266
641629
641991
642345
642708
643075
643425
643776
644142
644481
644834
645174
645514
645838
646168
646803
647128
647440
647777
648124
648456
648812
649142
649501
649863
