490
737
1000
1659
1903
2156
2829
3066
3667
3909
4511
4751
5341
5584
5855
6482
6721
6981
7232
7492
7753
8002
8254
8941
9890
10295
10541
10796
11462
11704
11973
12237
12492
12747
13003
13264
13525
13792
14057
14318
15317
15727
15966
16225
16918
17162
17421
17684
18402
18892
19130
19391
19650
19905
20167
21128
21559
21805
22066
22725
22965
23230
23887
24126
24384
24639
25352
26100
26810
27049
27306
27558
27821
28081
28337
28591
28850
29114
29374
30009
30257
30519
30779
31294
31535
31794
32477
32728
32993
33252
33511
33769
34305
34556
34825
35511
35750
36019
36284
36971
37210
37486
38192
38436
38701
38961
39667
39909
40167
40873
41125
41383
42068
42314
42577
43250
43496
43766
44441
44684
44945
45199
45460
45717
46394
46639
46908
47175
47439
47697
47954
48214
48475
48739
49007
49871
50368
50616
50880
51134
51397
52006
52261
52524
53180
53433
53692
54359
54605
54863
55550
55798
56062
56746
56991
57247
57506
57768
58026
58938
59454
59699
59959
60638
60891
61155
61419
61683
61943
62626
62872
63494
63731
64329
64574
65169
65413
65671
66322
66571
66827
67463
67709
67972
68610
68845
69441
69688
69943
70586
70829
71095
71354
72002
72245
72863
73095
73350
73604
73863
74516
75212
75455
75716
76388
76624
76888
77562
77800
78060
78727
78976
79240
79488
79740
79997
80690
80933
81192
81446
81704
81971
82227
82496
82755
83018
83281
83548
83810
84079
84343
84600
85176
85427
85700
85962
86225
87235
87709
87954
88223
88485
88745
88996
89259
89528
89790
90514
90767
91032
91731
91982
92610
92854
93122
93384
93646
94261
94514
94789
95482
95725
95988
96255
96523
96786
97500
97748
98406
98653
98921
99180
99449
100074
100321
100584
101262
101508
101768
102024
102981
103388
103636
103902
104595
104833
105095
105813
106335
106581
106840
107101
107369
107632
107895
108160
108841
109352
109596
109862
110122
110387
111069
111311
111577
111840
112108
112375
113376
113878
114122
114725
114962
115225
115486
115745
115999
116257
116516
116787
117455
117698
118329
118580
118848
119501
119744
120012
120266
120531
120790
121455
121702
121970
122229
122495
122605
123090
123330
123589
123846
124103
124681
124923
125189
125443
125704
126413
126661
126924
127624
128547
129047
129294
129567
129830
130096
130352
130614
130879
131873
132335
132583
132850
133108
133367
133968
134217
134488
135168
135413
135681
135950
136208
136466
136724
137697
138178
138419
138684
138950
139212
139475
139729
140311
140557
140827
141098
141362
141623
141887
142158
143183
143592
143845
144108
144367
145059
145310
145579
146231
146473
146734
147003
147277
147538
147804
148062
148330
148601
148865
149555
149802
150066
150783
151028
151293
151564
151833
152095
153029
153472
153722
153981
154652
154908
155175
155435
155696
156364
156613
156883
157546
157788
158055
158317
158579
158839
159098
159632
159884
160156
160419
160679
160944
161692
161931
162197
162461
162725
163357
163607
163868
164133
164408
164673
164939
165583
165827
166102
166369
167348
167828
168079
168339
169003
169256
169531
170193
170442
170713
170972
171589
171832
172096
172358
173083
173328
173596
173866
174132
174391
175093
175328
175597
175860
176121
176385
176642
177302
177544
177795
178451
178697
178963
179216
179476
179728
179990
180255
180516
181221
181468
181726
181988
182261
182520
182780
183041
183636
183887
184152
184412
184678
185329
185573
185842
186551
186796
187435
187688
187950
188212
188481
188743
189005
189552
189802
190073
190751
190997
191615
191863
192128
192381
192644
192912
193171
193704
193945
194210
194875
195122
195390
196094
196344
196609
196869
197131
197773
198031
198298
198561
198826
199488
199742
200005
200265
200806
201050
201319
201584
201843
202107
202878
203124
203395
203664
203931
204196
204906
205151
205423
206132
206383
206650
206911
207177
207851
208100
208371
208637
209198
209438
209710
209974
210664
210913
211183
211439
211706
211978
212245
212517
212788
213060
213329
214056
214308
214578
214846
215127
215791
216051
216331
216597
217163
217411
217684
217954
218227
218782
219026
219302
219573
219846
220528
220783
221058
221331
221900
222147
222421
222694
222963
223234
223511
224261
224522
224798
225485
225739
226006
226697
226941
227201
227885
228131
228397
228657
228927
230038
230540
230800
231076
231348
231613
231885
232159
232430
233542
234031
234285
234557
235243
235490
235765
236036
236301
236936
237196
237473
237741
238276
238527
238803
239074
239342
239994
240250
240526
240791
241054
241693
241953
242230
242499
242770
243036
243307
243583
244261
244508
244782
245040
245308
245572
245833
246099
246359
246625
246898
247162
247420
247682
247947
248205
248465
248729
248981
249236
249498
249773
250045
250309
250569
250831
251099
251362
251627
251901
252171
252439
252707
252983
253255
253526
253793
254383
254631
255199
255447
255715
255980
256253
256515
256783
257419
257659
257930
258199
258461
258731
258994
259265
259543
259812
260082
260348
260623
261270
261515
261776
262418
262675
262942
263203
263860
264100
264366
264636
264898
265164
265429
266080
266327
266594
267216
267466
268107
268355
268623
269283
269525
269786
270451
270699
270972
271228
271487
272198
272440
272702
272961
273221
273480
273748
274019
274279
274964
275216
275486
276145
276396
276660
276927
277700
277946
278215
278866
279104
279371
280031
280279
280547
281224
281474
281747
282013
282696
282941
283212
283870
284111
284370
285051
285297
285562
286230
286478
286746
287003
287259
287519
287788
288058
288325
288585
288851
289122
289388
289656
289932
290615
290869
291147
291413
291679
292350
292600
292872
293603
293849
294125
294839
295090
295362
296051
296298
296565
297243
297502
297769
298028
298840
299087
299360
300042
300287
300560
301235
301481
301744
302001
302652
302900
303166
303838
304080
304345
305051
305295
305562
305827
306088
306746
306995
307266
307530
307793
308059
308320
308590
309091
309334
309598
310276
310528
311193
311440
311713
312411
312656
312921
313189
313455
313719
313975
314706
315684
316084
316342
316551
316852
317105
317364
318059
318306
318568
318826
319722
320210
320460
320726
320984
321251
321520
321784
322049
322309
322580
323716
324160
324418
324692
324954
325217
325481
325750
326380
326620
326888
327585
327841
328110
328374
329344
329863
330112
330378
330642
330906
331169
331433
332112
332362
332630
333321
333565
333833
334103
334362
334628
335291
335547
335821
336083
336346
336617
336883
337469
337714
337981
338248
339212
339630
339882
340151
340847
341091
341358
341632
341904
342170
342433
342699
342970
344484
344941
345188
345456
345718
345983
346249
346520
346791
347906
348357
348608
348870
349575
349825
350096
350361
350630
350902
351176
351447
351714
352500
353976
354423
354675
354938
355198
355467
355730
355997
356266
356534
356798
357060
358242
358690
358938
359208
359864
360106
360371
360638
360902
361165
361425
362058
362309
362578
362847
363117
363877
364403
364647
364919
365183
365447
365716
365983
367024
367436
367690
367957
368227
368490
368760
369034
369298
370164
371137
371596
371851
372125
372385
372651
372912
373180
373717
373961
374226
374880
375132
375405
375665
376348
376602
376874
377137
377402
377672
377934
378206
378481
380595
381024
381283
381559
381821
382088
382348
382620
382896
383161
383426
383694
383963
384959
385498
385753
386026
386293
386560
386820
387080
387347
387619
388338
388849
389102
389372
389640
390343
390587
390858
391545
391794
392065
392337
392602
392869
393135
394055
395011
395429
395682
395948
396205
396468
398055
398494
398759
399025
399289
399555
399819
400078
400351
400620
400888
401679
402682
403124
403372
403639
403904
404164
404422
404687
404956
405222
405899
406148
406408
406674
406947
407209
408462
408953
409197
409461
409724
409985
410245
410508
410768
411029
411300
411564
411830
412809
413535
413784
414048
414316
414585
414852
415115
415381
416130
417576
418009
418255
418523
418790
419052
419322
419596
419864
420136
420404
420679
420954
421952
422393
422652
422924
423187
423451
423723
424003
424275
424544
425617
426051
426304
426567
426835
427110
427375
427643
428804
429258
429510
429771
430043
430319
430586
430852
431122
431390
431658
432788
433365
433617
433894
434154
434422
434692
434960
435232
435509
435778
436858
437400
437649
437920
438192
438460
438727
438998
439261
439529
439811
440080
440716
440974
441239
441913
442163
442427
442693
442969
443234
443506
443779
444533
446025
446331
446513
446678
446883
447109
447374
447597
447831
448077
448848
449256
449505
449776
450038
450302
452324
452796
453045
453306
453572
453830
454098
454370
454630
454891
455152
455420
456352
456789
457034
457302
457564
457822
458086
458350
458621
458892
459161
459424
460545
461369
462304
463206
463737
463979
464242
464491
464748
465009
465271
465530
465790
467367
467784
468039
468306
468568
468817
469074
469334
469587
469849
470116
470376
471075
471623
471872
472134
472396
472661
472928
473192
474686
475087
475334
475594
475852
476116
476376
476637
476897
477155
477419
477691
477951
478218
478480
480081
480482
480734
481004
481270
481526
481784
482046
482303
482565
483278
483807
484057
484702
484956
485227
485907
486151
486419
486678
486941
487219
487481
487747
488511
490008
490453
490699
490956
491211
491478
491739
492005
492277
492539
492801
493858
494766
495663
496167
496418
496687
496946
497207
497469
497728
497985
498252
498519
498781
499473
500401
500924
501166
501433
501703
501962
502219
502475
502740
503008
503269
503531
503791
504055
504315
504581
504850
505712
507151
507561
507813
508079
508336
508596
508859
509121
509385
509653
509912
510176
510444
512495
512918
513164
513423
513681
513942
514203
514469
514736
514994
516048
516886
517810
518716
519616
520122
520368
520632
520893
521150
521404
521663
521925
522181
522438
522693
522945
523648
524153
524400
524664
524926
525194
525452
525709
525970
526238
526497
526765
527036
527295
528058
528576
528818
529084
529345
529600
529863
530129
530389
530648
530909
531177
531446
531716
532341
532592
532867
533133
533406
534956
535400
535655
535920
536191
536464
536727
536988
537252
537530
537802
538070
539172
539605
539852
540121
540385
540657
540930
541192
542179
542750
542993
543255
543510
543775
544042
544305
544568
544841
545113
545850
546837
547323
547574
547836
548102
548370
548638
548906
549177
549445
549708
549978
550254
550523
550797
551945
552401
552653
552917
553183
553457
553719
553980
554242
554511
554774
555051
556003
556534
556791
557065
557327
557594
557866
558136
558410
558681
558947
559212
559481
559761
560859
561305
561559
561832
562105
562369
562640
562918
563184
563458
563730
564003
564271
564969
565474
565724
566005
566277
566553
566819
567088
567362
567637
567919
568198
568476
568750
569035
569923
570474
570731
571009
571284
571559
571828
572105
573382
573986
574239
574513
574784
575052
575325
575606
575876
576145
576417
577530
577977
578229
578510
578789
579060
579332
579601
579876
580147
580428
580708
580978
581945
582338
582588
582857
583126
583397
583669
583944
584646
585651
586067
586317
586589
586852
587114
587377
587636
588443
588942
589191
589463
589733
590008
590272
590543
590813
591091
591371
591642
592521
593066
593325
593597
593862
594134
594411
594682
594953
595217
595484
595758
596035
597198
598164
598704
598949
599220
599489
599751
600020
600279
600548
600824
601091
601354
601619
601890
602155
603036
603520
603772
604043
604310
604571
604835
605105
605780
606711
607163
607412
607672
607932
608195
608453
608718
608981
609243
609507
609766
610037
610677
610924
611202
611477
611750
613352
613782
614039
614335
614618
615345
616250
617119
617963
618801
619634
619881
620136
620382
620636
620894
621145
621408
621672
621924
622183
622441
622709
622977
623241
623886
624380
624628
624901
625157
625414
625681
625952
626214
626481
626748
627012
627276
627542
627811
628079
628345
629048
629972
630475
630724
630989
631248
631507
631764
632024
632297
632569
632838
633564
634619
635055
635311
635585
635850
636111
636373
636642
636914
637182
637453
637724
637991
638940
639444
639702
639974
640243
640516
640781
641048
641315
641589
641869
642141
643260
643833
644084
644350
644622
644895
645170
645442
645709
645975
646243
646518
647160
647410
647680
647955
648228
648845
649097
649366
