27
320
496
750
965
1092
1384
1559
1820
2036
2159
2450
2672
2885
3013
3308
3522
3730
3944
4161
4375
4506
4797
4953
5219
5440
5583
5750
6045
6254
6465
6681
6892
7101
7311
7476
7711
7926
8056
8347
8557
8767
8903
9191
9401
9605
9814
9984
10207
10339
10649
10814
11058
11268
11400
11693
11867
12108
12314
12448
12735
12916
13156
13364
13565
13727
13981
14186
14317
14592
14775
14999
15206
15413
15583
15702
16023
16168
16443
16648
16852
17053
17256
17382
17666
17875
18076
18205
18480
18687
18897
19100
19304
19443
19707
19911
20119
20289
20527
20733
20858
21141
21352
21556
21763
21966
22171
22303
22579
22754
22992
23196
23318
23603
23739
24015
24220
24426
24633
24833
24993
25249
25453
25582
25857
26034
26281
26489
26617
26897
27103
27309
27447
27729
27935
28135
28294
28544
28757
28885
29157
29317
29414
29734
29945
30153
30358
30561
30762
30967
31179
31382
31583
31784
31909
32187
32390
32589
32792
32992
33120
33389
33597
33797
33936
34196
34394
34599
34802
35004
35145
35407
35606
35806
36009
36212
36413
36606
36739
37005
37204
37403
37607
37800
38000
38197
38399
38602
38804
39004
39205
39407
39605
39810
39956
40215
40421
40621
40830
41038
41241
41444
41630
41856
42058
42270
42482
42603
42894
43074
43316
43526
43654
43932
44110
44352
44558
44689
44982
45107
45392
45517
45823
45987
46247
46452
46579
46859
47012
47262
47478
47613
47892
48079
48314
48449
48726
48862
49137
49345
49556
49715
49970
50181
50302
50593
50721
51020
51156
51437
51600
51861
52078
52211
52499
52627
52920
53056
53350
53513
53635
53969
54116
54395
54612
54741
55033
55162
55460
55680
55808
56099
56232
56526
56658
56926
57146
57280
57562
57740
57991
58208
58331
58625
58755
59055
59187
59481
59648
59910
60120
60250
60555
60753
60876
61191
61404
61611
61738
62030
62238
62370
62649
62866
63004
63288
63414
63702
63918
64122
64333
64547
64753
64881
65160
65338
65578
65787
65987
66146
66397
66599
66806
66932
67141
67383
67591
67801
68011
68218
68344
68622
68780
69037
69251
69382
69665
69795
70079
70288
70411
70711
70883
71124
71335
71541
71708
71956
72161
72366
72533
72785
72995
73124
73408
73539
73807
74022
74234
74450
74658
74866
75077
75292
75500
75703
75809
76119
76286
76543
76759
76891
77180
77303
77605
77738
78037
78248
78456
78672
78882
79094
79311
79516
79693
79831
80145
80361
80537
80760
80983
81119
81396
81613
81824
82035
82211
82359
82664
82874
83084
83291
83501
83708
83917
84129
84283
84510
84746
84957
85168
85372
85491
85780
85992
86198
86412
86626
86830
87037
87160
87456
87626
87880
88086
88210
88497
88621
88921
89133
89342
89550
89763
89981
90189
90400
90612
90825
91029
91244
91461
91667
91874
92000
92292
92484
92717
92922
93131
93292
93406
93751
93915
94181
94391
94600
94818
95032
95160
95453
95665
95782
96092
96310
96525
96739
96946
97071
97375
97590
97799
98012
98224
98351
98647
98864
99079
99291
99501
99715
99850
100140
100350
100560
100690
100986
101150
101413
101627
101837
102038
102269
102480
102692
102905
103029
103327
103548
103770
103895
104196
104352
104631
104851
105068
105277
105486
105614
105910
106126
106339
106550
106759
106885
107187
107400
107611
107737
108034
108247
108462
108596
108887
109103
109313
109446
109748
109899
110172
110299
110602
110767
111264
111482
111693
111913
112048
112352
112566
112780
112911
113211
113366
113650
113775
114074
114237
114510
114726
114938
115151
115367
115493
115794
116015
116228
116355
116656
116881
117094
117224
117510
117722
117933
118063
118363
118577
118790
118916
119216
119440
119656
119784
120080
120299
120514
120642
120950
121169
121380
121555
121815
122031
122244
122415
122668
122826
122978
123312
123531
123742
123957
124177
124308
124609
124824
125043
125171
125477
125702
125921
126049
126352
126572
126791
127010
127219
127347
127644
127861
128075
128207
128507
128721
128933
129068
129370
129590
129800
129927
130220
130436
130655
130781
131077
131288
131504
131641
131927
132134
132340
132469
132762
132979
133192
133320
133611
133827
134047
134179
134472
134684
134897
135028
135326
135547
135758
135889
136180
136402
136620
136747
137041
137256
137472
137599
137899
138121
138335
138459
138762
138989
139202
139330
139629
139845
140057
140187
140486
140701
140911
141034
141339
141559
141771
141894
142186
142402
142615
142741
143043
143260
143472
143602
143910
144132
144344
144558
144774
144944
145203
145426
145639
145852
145980
146282
146475
146611
146936
147073
147373
147563
147819
148037
148168
148467
148655
148909
149128
149340
149521
149767
149986
150165
150315
150628
150766
151065
151291
151507
151701
151940
152159
152370
152585
152723
153006
153217
153429
153616
153754
154063
154195
154490
154700
154911
155130
155340
155551
155759
155974
156191
156400
156602
156809
157023
157231
157438
157647
157852
158021
158256
158471
158599
158886
159089
159299
159510
159723
159851
160143
160358
160561
160772
160987
161114
161402
161594
161819
162027
162240
162423
162638
162877
163087
163305
163522
163741
163866
164160
164337
164597
164819
165036
165250
165460
165588
165896
166113
166328
166454
166757
166976
167201
167330
167639
167860
168085
168218
168531
168750
168965
169094
169389
169612
169832
169960
170253
170466
170682
170813
171110
171322
171534
171668
171954
172170
172389
172515
172808
173024
173246
173376
173668
173881
174092
174223
174514
174731
174940
175068
175357
175573
175792
175919
176208
176422
176638
176768
177062
177283
177622
177916
178047
178351
178568
178777
178989
179198
179331
179624
179834
180045
180172
180468
180688
180901
181032
181318
181537
181748
181879
182178
182390
182598
182732
183029
183239
183450
183576
183868
184077
184293
184429
184552
184904
185121
185340
185476
185771
185984
186198
186332
186621
186841
187057
187188
187482
187702
187921
188049
188343
188562
188778
188903
189200
189424
189637
189850
190062
190282
190413
190708
190919
191131
191264
191560
191778
191990
192123
192411
192631
192850
192977
193274
193455
193706
193924
194141
194314
194570
194782
194998
195177
195389
195645
195857
196070
196278
196495
196625
196918
197130
197343
197560
197775
197906
198191
198403
198615
198741
199041
199261
199470
199598
199892
200115
200327
200499
200748
200952
201161
201332
201583
201792
202000
202167
202416
202636
202847
203017
203224
203479
203690
203903
204121
204332
204464
204749
204955
205080
205399
205614
205826
205959
206255
206477
206694
206821
207123
207299
207570
207792
208003
208167
208434
208653
208871
209040
209303
209517
209732
209909
210166
210384
210596
210769
211026
211251
211471
211643
211850
211972
212332
212497
212771
212990
213207
213419
213633
213762
214056
214273
214484
214704
214921
215053
215341
215556
215772
215901
216206
216425
216640
216765
217067
217294
217506
217635
217923
218142
218348
218481
218774
218988
219198
219368
219627
219842
219972
220266
220485
220700
220917
221131
221260
221559
221772
221988
222204
222416
222619
222750
222925
223253
223422
223684
223900
224107
224269
224392
224743
224962
225174
225383
225593
225730
226020
226207
226336
226649
226779
227078
227214
227500
227695
227928
228056
228353
228569
228786
228913
229210
229414
229642
229854
230064
230274
230480
230693
230908
231073
231235
231526
231667
231963
232127
232384
232599
232731
233027
233155
233467
233684
233894
234109
234332
234488
234756
234970
235182
235342
235604
235825
236036
236204
236459
236678
236896
237068
237321
237535
237666
237965
238185
238398
238614
238820
239030
239247
239457
239668
239873
240079
240235
240497
240711
240837
241128
241297
241555
241773
241900
242193
242407
242618
242827
243040
243254
243462
243626
243875
244091
244216
244506
244628
244921
245049
245344
245506
245765
245975
246100
246392
246525
246817
246944
247234
247400
247650
247863
247993
248281
248410
248669
248796
249094
249268
249507
249717
249847
250137
250315
250567
250778
250985
251146
251415
251633
251847
252058
252269
252478
252612
252902
253061
253325
253540
253753
253930
254072
254381
254535
254803
255018
255149
255443
255656
255866
256078
256295
256423
256715
256880
257127
257343
257559
257732
257985
258204
258415
258589
258849
259066
259277
259448
259703
259918
260132
260302
260550
260756
260885
261183
261390
261595
261802
262013
262219
262358
262644
262809
263061
263270
263398
263701
263913
264117
264251
264540
264752
264966
265137
265394
265604
265727
266037
266255
266470
266595
266899
267115
267332
267465
267761
267979
268193
268328
268632
268852
269061
269191
269486
269703
269918
270050
270340
270549
270761
270894
271185
271399
271611
271784
272035
272255
272385
272685
272901
273114
273332
273546
273761
273969
274127
274388
274601
274814
274979
275238
275446
275574
275882
276094
276308
276520
276734
276945
277160
277335
277585
277795
277919
278224
278402
278646
278849
278977
279265
279476
279686
279900
280110
280315
280529
280747
280960
281169
281376
281586
281793
282004
282214
282419
282625
282828
283033
283246
283428
283530
283859
284011
284279
284492
284707
284874
285058
285329
285546
285758
285976
286184
286307
286597
286807
287012
287160
287420
287626
287837
288052
288257
288384
288674
288884
289090
289302
289516
289720
289924
290128
290338
290549
290677
290957
291164
291370
291571
291776
291989
292190
292317
292599
292774
293024
293197
293435
293642
293857
294033
294277
294489
294614
294903
295115
295332
295540
295750
295952
296162
296337
296580
296794
296922
297212
297423
297636
297853
298066
298192
298484
298699
298912
299046
299341
299550
299759
299891
300178
300306
300604
300760
301022
301236
301366
301541
301876
302092
302298
302427
302727
302941
303149
303358
303570
303695
303989
304206
304411
304615
304823
305032
305220
305456
305575
305864
306036
306280
306416
306705
306855
307115
307327
307460
307749
307876
308166
308306
308583
308796
309008
309176
309428
309628
309762
310062
310191
310478
310608
310897
311061
311320
311536
311663
311952
312125
312379
312594
312721
313009
313137
313432
313566
313863
314078
314204
314496
314675
314928
315142
315271
315563
315691
315987
316121
316421
316549
316842
317056
317273
317443
317698
317910
318119
318289
318539
318750
318879
319162
319287
319586
319810
320018
320230
320440
320571
320859
321073
321290
321419
321703
321916
322134
322300
322551
322760
322969
323137
323302
323603
323775
324028
324236
324445
324618
324865
325072
325276
325441
325685
325891
326022
326301
326475
326714
326924
327056
327341
327502
327747
327962
328169
328382
328592
328796
329002
329206
329418
329625
329832
330033
330234
330439
330642
330849
330982
331254
331457
331661
331796
332071
332199
332481
332687
332890
333024
333303
333436
333711
333912
334117
334327
334529
334655
334928
335056
335333
335539
335748
335953
336157
336354
336562
336777
336982
337187
337389
337594
337729
338003
338208
338412
338545
338815
339021
339231
339357
339638
339841
340046
340248
340456
340660
340868
341054
341275
341482
341611
341895
342098
342299
342500
342703
342910
343110
343315
343518
343716
343919
344124
344326
344529
344728
344928
345129
345256
345539
345746
345950
346150
346353
346560
346762
346966
347167
347368
347500
347772
347900
348185
348315
348425
348780
348997
349202
349409
349614
349820
350027
350237
350447
350654
350860
351063
351272
351488
351692
351815
352098
352266
352515
352728
352944
353149
353278
353556
353741
353986
354196
354318
354603
354776
354886
355225
355441
355649
355773
356062
356237
356489
356702
356824
357114
357284
357540
357756
357880
358171
358296
358595
358814
359025
359233
359441
359574
359859
359988
360291
360440
360710
360925
361143
361299
361562
361773
361981
362138
362399
362617
362742
363032
363155
363457
363675
363882
364007
364295
364512
364717
364848
365141
365350
365555
365685
365978
366189
366398
366524
366810
367023
367235
367447
367657
367788
368069
368282
368498
368708
368914
369043
369325
369477
369739
369950
370157
370363
370570
370702
370993
371206
371407
371559
371797
372008
372138
372426
372576
372842
373055
373265
373418
373679
373884
374089
374247
374502
374712
374920
375074
375324
375533
375662
375950
376162
376365
376570
376775
376900
377193
377357
377610
377812
377937
378226
378394
378637
378841
378967
379249
379419
379661
379868
379996
380274
380402
380700
380908
381114
381322
381530
381659
381942
382157
382362
382512
382770
382983
383196
383404
383607
383736
383989
384202
384414
384630
384837
384969
385250
385406
385679
385895
386100
386305
386517
386726
386936
387143
387270
387533
387703
387963
388174
388386
388538
388657
389003
389171
389437
389647
389858
390069
390284
390417
390703
390910
391118
391265
391502
391720
391936
392086
392351
392562
392782
392944
393205
393418
393627
393788
394045
394263
394402
394645
394853
395065
395282
395486
395692
395819
396103
396312
396521
396658
396939
397151
397256
397571
397788
398000
398129
398409
398539
398834
398987
399256
399468
399673
399882
400096
400222
400514
400723
400930
401137
401350
401564
401769
401978
402180
402309
402598
402809
403013
403216
403423
403547
403832
404045
404247
404450
404655
404867
405078
405285
405486
405619
405900
406063
406317
406532
406738
406941
407104
407263
407573
407745
407988
408151
408403
408614
408740
409035
409202
409450
409663
409879
410088
410296
410505
410630
410918
411070
411342
411556
411765
411971
412180
412314
412600
412807
413013
413226
413434
413565
413749
414058
414213
414476
414692
414904
415113
415318
415524
415657
415944
416108
416367
416576
416781
416935
417057
417398
417562
417818
418028
418153
418442
418614
418865
419073
419199
419489
419665
419820
420117
420328
420540
420717
420959
421174
421295
421581
421749
422012
422223
422349
422634
422802
423050
423213
423473
423683
423812
424093
424308
424526
424656
424938
425149
425364
425489
425779
425999
426208
426337
426624
426845
427057
427188
427478
427690
427902
428033
428333
428545
428756
428884
429179
429398
429607
429732
430015
430185
430437
430654
430863
431013
431274
431485
431699
431904
432115
432321
432527
432731
432940
433153
433357
433564
433765
433974
434185
434389
434593
434797
435006
435209
435341
435627
435836
436047
436173
436469
436624
436902
437111
437321
437538
437705
437959
438174
438383
438529
438795
439016
439228
439441
439645
439771
440065
440286
440495
440624
440913
441122
441334
441469
441758
441927
442178
442394
442601
442814
442946
443235
443448
443660
443791
444085
444302
444510
444637
444932
445106
445370
445585
445797
445943
446133
446441
446585
446717
447057
447275
447487
447702
447919
448045
448331
448546
448767
448895
449193
449410
449625
449753
450049
450273
450485
450616
450908
451111
451337
451547
451751
451959
452175
452386
452596
452732
453021
453233
453447
453581
453883
454101
454311
454435
454738
454959
455181
455394
455607
455821
456040
456169
456468
456683
456895
457022
457329
457553
457768
457895
458200
458428
458648
458777
459077
459292
459509
459635
459944
460161
460377
460500
460807
461032
461249
461377
461676
461892
462109
462237
462544
462762
462971
463104
463407
463619
463826
463954
464249
464463
464675
464810
465102
465316
465528
465663
465960
466174
466385
466512
466811
467030
467248
467373
467669
467882
468098
468235
468526
468736
468945
469082
469370
469588
469798
469931
470219
470436
470653
470783
471079
471292
471503
471632
471924
472145
472352
472485
472771
472991
473203
473340
473624
473837
474047
474225
474478
474691
474901
475072
475217
475545
475674
475966
476181
476393
476562
476813
477032
477240
477409
477541
477870
478034
478296
478499
478706
478913
479120
479252
479539
479751
479953
480137
480275
480583
480723
480993
481170
481402
481609
481811
481971
482219
482417
482620
482799
482933
483230
483432
483631
483831
484007
484140
484447
484653
484817
485055
485262
485390
485581
485722
486057
486227
486368
486676
486807
487184
487496
487658
487918
488125
488329
488532
488656
488941
489138
489313
489561
489768
489977
490166
490392
490592
490724
491001
491206
491413
491548
491827
492032
492239
492370
492581
492704
493053
493267
493477
493603
493895
494062
494319
494525
494732
494948
495157
495365
495570
495778
495905
496194
496413
496622
496753
497040
497258
497472
497603
497885
498097
498307
498438
498730
498943
499151
499278
499564
499782
499989
500122
500407
500620
500828
500964
501261
501474
501683
501814
502111
502332
502544
502671
502959
503173
503386
503514
503808
504020
504226
504356
504655
504867
505076
505206
505496
505707
505919
506055
506347
506559
506768
506903
507202
507417
507623
507784
508038
508249
508457
508668
508880
509086
509297
509518
509727
509938
510146
510360
510570
510783
510916
511204
511360
511630
511760
512058
512232
512488
512705
512920
513087
513356
513574
513789
513950
514215
514437
514651
514817
515069
515284
515494
515665
515927
516139
516347
516512
516659
516993
517124
517424
517645
517861
517991
518306
518486
518742
518962
519186
519406
519623
519832
520049
520260
520477
520608
520907
521121
521328
521458
521761
521944
522185
522398
522613
522772
523040
523254
523466
523623
523887
524107
524318
524485
524625
524945
525072
525369
525497
525795
525925
526132
526441
526662
526879
527003
527304
527484
527734
527950
528160
528322
528580
528799
529014
529179
529431
529646
529857
530024
530282
530499
530709
530875
531020
531343
531475
531679
531979
532194
532318
532609
532786
533038
533248
533456
533617
533883
534096
534216
534511
534728
534945
535068
535369
535585
535797
535926
536227
536444
536654
536783
537078
537294
537509
537638
537934
538148
538358
538489
538787
539004
539213
539335
539628
539848
540064
540194
540482
540695
540907
541042
541331
541544
541755
541884
542171
542384
542600
542727
543015
543229
543447
543575
543865
544080
544291
544421
544711
544930
545141
545271
545557
545774
545994
546119
546409
546620
546835
546959
547256
547478
547681
547809
548091
548311
548523
548655
548939
549152
549363
549497
549783
549913
550207
550363
550623
550839
551046
551251
551457
551668
551875
552088
552222
552508
552693
552829
553154
553373
553592
553718
554015
554230
554450
554580
554881
555098
555307
555439
555741
555956
556164
556291
556588
556808
557028
557158
557461
557676
557898
558031
558332
558547
558761
558890
559185
559404
559618
559743
560035
560252
560472
560598
560898
561114
561331
561458
561756
561976
562190
562318
562614
562838
563055
563187
563477
563692
563904
564035
564342
564555
564766
564892
565188
565404
565619
565743
566039
566257
566475
566605
566904
567121
567331
567461
567764
567979
568184
568314
568600
568808
569022
569158
569442
569650
569859
570041
570289
570503
570627
570924
571134
571347
571474
571770
571981
572183
572311
572610
572825
573027
573155
573445
573652
573866
573994
574290
574500
574712
574844
575143
575358
575564
575689
575983
576200
576412
576539
576836
577047
577255
577391
577681
577891
578100
578228
578517
578734
578948
579076
579362
579574
579784
579917
580206
580416
580623
580754
581038
581251
581465
581592
581878
582091
582309
582436
582726
582939
583151
583281
583572
583792
584001
584131
584418
584637
584853
584984
585272
585489
585701
585828
586127
586346
586559
586687
586984
587209
587420
587549
587837
588058
588269
588398
588702
588920
589130
589258
589558
589775
589987
590111
590408
590624
590838
590971
591263
591481
591695
591828
592127
592347
592557
592682
592981
593203
593420
593548
593838
594053
594271
594404
594572
594902
595073
595328
595486
595754
595971
596183
596391
596608
596830
597040
597171
597463
597648
597769
598098
598324
598534
598662
598953
599176
599388
599518
599806
600021
600235
600363
600665
600880
601095
601220
601516
601736
601950
602075
602370
602589
602802
602929
603225
603442
603654
603780
604091
604309
604523
604650
604955
605173
605395
605576
605827
605959
606258
606432
606696
606831
607125
607293
607553
607776
608000
608214
608428
608552
608736
609082
609306
609522
609647
609956
610123
610400
610619
610835
611000
611268
611488
611660
611913
612130
612261
612564
612724
613002
613222
613347
613655
613880
614100
614224
614526
614745
614962
615092
615398
615576
615819
616036
616253
616469
616679
616807
617103
617320
617538
617669
617971
618189
618406
618539
618836
619056
619269
619438
619689
619908
620125
620293
620545
620758
620975
621154
621281
621611
621747
622041
622264
622484
622660
622913
623125
623347
623527
623656
623982
624118
624413
624633
624849
625025
625277
625488
625706
625889
626018
626348
626481
626781
626998
627214
627387
627644
627858
628073
628251
628384
628708
628854
629133
629351
629567
629696
629995
630125
630430
630601
630875
631098
631311
631487
631615
631784
632139
632310
632572
632787
633004
633220
633432
633556
633852
634008
634277
634493
634712
634879
635133
635350
635572
635744
635992
636199
636416
636586
636716
637047
637201
637467
637637
637898
638114
638245
638531
638661
638955
639175
639305
639607
639795
640025
640237
640455
640667
640794
641080
641292
641500
641708
641918
642122
642326
642494
642743
642953
643161
643318
643453
643778
643937
644203
644411
644533
644817
644947
645246
645372
645663
645787
646080
646240
646506
646729
646942
647155
647368
647498
647809
648027
648242
648366
648654
648874
649091
649222
649519
649731
649947
