136
367
607
842
1083
1328
1563
1795
2043
2290
2529
2760
2995
3228
3464
3705
3939
4167
4401
4647
4881
5109
5340
5573
5806
6038
6272
6507
6738
6974
7211
7446
7677
7910
8143
8381
8623
8853
9085
9323
9569
9806
10035
10267
10504
10742
10983
11212
11442
11674
11916
12148
12379
12609
12845
13074
13311
13547
13781
14010
14250
14490
14724
14953
15186
15416
15652
15893
16121
16349
16582
16828
17061
17289
17519
17757
17993
18231
18464
18698
18928
19172
19405
19638
19864
20095
20321
20554
20786
21015
21239
21471
21706
21937
22163
22393
22625
22860
23098
23327
23558
23786
24027
24256
24486
24713
24943
25168
25404
25639
25868
26091
26330
26569
26804
27029
27260
27491
27724
27965
28196
28424
28655
28897
29129
29358
29588
29826
30057
30292
30523
30756
30981
31218
31453
31686
31910
32140
32368
32603
32838
33066
33291
33520
33758
33989
34217
34442
34675
34905
35141
35375
35606
35833
36071
36308
36543
36768
36999
37225
37461
37696
37924
38152
38386
38629
38861
39091
39324
39558
39790
40026
40262
40495
40724
40963
41205
41441
41670
41902
42134
42370
42614
42844
43070
43303
43547
43781
44008
44236
44470
44703
44933
45164
45392
45612
45841
46079
46313
46544
46778
47011
47248
47487
47716
47946
48182
48426
48662
48894
49127
49364
49606
49848
50080
50313
50544
50788
51023
51259
51489
51726
51959
52199
52433
52666
52896
53140
53376
53610
53839
54071
54300
54535
54773
55003
55228
55463
55705
55935
56161
56391
56625
56861
57100
57332
57565
57794
58034
58267
58498
58725
58957
59184
59417
59651
59883
60109
60345
60586
60821
61049
61282
61516
61753
61993
62224
62457
62695
62940
63172
63399
63630
63863
64096
64335
64563
64795
65023
65266
65501
65735
65966
66201
66431
66670
66908
67142
67367
67603
67841
68074
68299
68529
68759
68992
69227
69454
69681
69911
70154
70386
70616
70843
71080
71308
71544
71777
72008
72232
72467
72705
72940
73165
73397
73630
73868
74109
74344
74580
74815
75057
75291
75523
75754
75987
76219
76452
76685
76916
77141
77379
77615
77850
78076
78309
78542
78784
79025
79256
79483
79722
79963
80197
80424
80658
80892
81127
81364
81597
81826
82057
82295
82532
82766
82999
83236
83466
83703
83944
84179
84408
84645
84888
85121
85347
85579
85810
86048
86290
86521
86754
86993
87241
87481
87714
87950
88189
88433
88677
88912
89147
89386
89633
89870
90104
90342
90582
90825
91070
91308
91548
91787
92038
92276
92512
92750
92990
93229
93472
93707
93942
94177
94423
94663
94897
95131
95371
95610
95851
96091
96326
96559
96799
97037
97268
97496
97728
97956
98186
98419
98645
98869
99098
99334
99563
99788
100015
100246
100479
100713
100941
101169
101393
101627
101861
102093
102315
102541
102769
103005
103245
103471
103699
103933
104176
104406
104636
104864
105097
105326
105561
105790
106020
106243
106478
106710
106942
107167
107398
107626
107858
108096
108325
108556
108785
109028
109258
109487
109717
109952
110181
110418
110653
110886
111111
111350
111589
111825
112052
112286
112521
112761
113002
113241
113473
113713
113956
114193
114423
114659
114895
115136
115375
115606
115839
116076
116320
116555
116788
117022
117261
117501
117744
117981
118216
118451
118698
118938
119175
119406
119641
119872
120113
120348
120583
120815
121063
121306
121545
121779
122020
122254
122493
122734
122971
123200
123441
123682
123918
124147
124385
124622
124864
125109
125348
125582
125828
126074
126317
126551
126789
127028
127276
127525
127766
128002
128246
128491
128735
128969
129207
129444
129689
129935
130175
130411
130660
130908
131152
131391
131634
131874
132123
132371
132611
132848
133095
133341
133584
133819
134058
134294
134538
134786
135025
135256
135496
135741
135978
136205
136436
136668
136904
137141
137372
137600
137833
138075
138310
138542
138776
139015
139255
139494
139731
139965
140199
140442
140682
140920
141151
141383
141615
141851
142091
142321
142551
142786
143028
143263
143495
143729
143966
144207
144452
144687
144919
145156
145401
145636
145869
146102
146342
146582
146825
147064
147303
147542
147794
148033
148269
148504
148746
148981
149221
149458
149693
149924
150164
150405
150642
150875
151117
151352
151593
151836
152076
152310
152554
152799
153039
153269
153506
153743
153983
154229
154468
154706
154956
155206
155453
155692
155936
156176
156423
156668
156908
157145
157391
157633
157874
158108
158345
158578
158817
159059
159295
159524
159766
160009
160246
160478
160714
160948
161188
161432
161667
161898
162137
162383
162618
162847
163078
163314
163554
163795
164027
164259
164494
164741
164977
165209
165443
165682
165919
166158
166390
166625
166854
167094
167327
167562
167790
168024
168252
168489
168725
168958
169184
169423
169662
169897
170122
170351
170581
170815
171053
171280
171505
171733
171974
172204
172433
172661
172893
173119
173354
173588
173821
174045
174281
174521
174754
174981
175214
175445
175680
175916
176148
176378
176608
176847
177080
177312
177541
177776
178008
178245
178482
178714
178940
179177
179417
179653
179877
180107
180337
180574
180811
181041
181270
181502
181742
181974
182203
182434
182667
182900
183135
183367
183597
183825
184060
184291
184520
184745
184972
185198
185431
185668
185894
186118
186350
186591
186824
187049
187276
187508
187738
187969
188198
188423
188645
188879
189113
189342
189565
189793
190022
190255
190492
190720
190948
191182
191423
191654
191881
192111
192342
192575
192808
193036
193264
193490
193725
193959
194190
194417
194644
194871
195106
195348
195577
195802
196037
196276
196509
196734
196964
197195
197428
197664
197893
198119
198348
198586
198816
199043
199271
199505
199734
199967
200199
200427
200650
200882
201119
201347
201569
201794
202021
202251
202484
202711
202937
203162
203397
203633
203864
204090
204318
204545
204776
205011
205235
205460
205690
205926
206154
206379
206607
206840
207074
207313
207545
207780
208015
208259
208498
208736
208970
209208
209442
209683
209925
210160
210390
210630
210872
211111
211344
211581
211816
212057
212302
212536
212767
213005
213250
213484
213712
213943
214179
214414
214650
214880
215114
215347
215593
215828
216063
216297
216540
216779
217023
217260
217497
217733
217978
218216
218457
218689
218928
219162
219404
219642
219879
220110
220354
220594
220832
221063
221301
221533
221774
222013
222248
222477
222719
222961
223197
223426
223661
223894
224134
224375
224609
224837
225075
225322
225559
225788
226024
226261
226501
226742
226977
227212
227445
227690
227927
228159
228394
228631
228871
229113
229345
229581
229816
230061
230296
230530
230759
230994
231225
231462
231692
231922
232147
232385
232620
232853
233079
233312
233541
233781
234022
234258
234489
234730
234974
235209
235438
235674
235905
236141
236378
236609
236837
237066
237309
237543
237773
238000
238238
238471
238708
238944
239179
239407
239649
239890
240128
240356
240587
240819
241055
241293
241525
241753
241990
242230
242465
242694
242927
243160
243398
243634
243869
244101
244333
244570
244800
245029
245255
245483
245708
245944
246182
246412
246639
246877
247121
247356
247581
247814
248047
248285
248522
248754
248983
249216
249459
249692
249921
250157
250396
250633
250870
251109
251347
251581
251825
252067
252303
252537
252775
253011
253250
253487
253721
253953
254193
254435
254672
254902
255136
255369
255613
255856
256088
256320
256560
256801
257036
257266
257498
257728
257965
258205
258433
258661
258895
259137
259367
259596
259831
260067
260305
260545
260781
261016
261250
261495
261733
261965
262197
262431
262665
262901
263138
263372
263601
263839
264080
264315
264544
264774
265005
265240
265478
265707
265935
266169
266407
266638
266864
267094
267325
267563
267803
268033
268263
268497
268741
268974
269207
269438
269671
269903
270140
270375
270604
270829
271064
271300
271533
271760
271989
272218
272451
272693
272924
273153
273389
273635
273869
274100
274332
274572
274809
275048
275281
275516
275752
275999
276238
276476
276711
276953
277191
277436
277676
277916
278150
278394
278635
278875
279107
279343
279578
279820
280061
280298
280528
280770
281011
281249
281482
281717
281950
282190
282432
282666
282895
283132
283375
283607
283836
284068
284302
284540
284779
285009
285239
285470
285713
285945
286178
286406
286642
286871
287106
287339
287569
287792
288027
288264
288497
288720
288951
289181
289419
289658
289886
290117
290353
290597
290831
291058
291289
291523
291760
291998
292226
292456
292686
292927
293157
293390
293619
293853
294084
294323
294559
294795
295023
295264
295502
295737
295969
296206
296436
296676
296917
297153
297383
297625
297872
298113
298345
298585
298824
299070
299316
299558
299791
300038
300284
300525
300756
300993
301227
301468
301711
301947
302179
302420
302663
302904
303136
303373
303608
303851
304095
304313
304525
304698
304891
305064
305230
305427
305623
305834
306056
306268
306497
306728
306927
307119
307340
307574
307816
308054
308287
308481
308685
308912
309103
309293
309498
309697
309885
310060
310222
310372
310527
310686
310853
311036
311190
311355
311519
311681
311834
311985
312147
312305
312458
312606
312764
312929
313078
313228
313370
313518
313876
314139
314388
314643
314894
315141
315381
315625
315871
316119
316365
316608
316849
317100
317343
317583
317824
318068
318309
318553
318795
319032
319273
319525
319766
320006
320247
320491
320732
320979
321219
321455
321692
321941
322182
322416
322647
322887
323123
323363
323601
323834
324069
324313
324553
324788
325018
325254
325487
325723
325960
326193
326425
326665
326905
327142
327373
327608
327842
328083
328326
328560
328791
329031
329276
329514
329745
329978
330211
330451
330695
330926
331155
331392
331634
331868
332096
332331
332565
332802
333042
333277
333508
333743
333986
334220
334450
334682
334920
335156
335391
335626
335857
336088
336330
336571
336807
337041
337278
337515
337758
338000
338238
338472
338714
338959
339201
339435
339669
339903
340145
340389
340622
340855
341099
341347
341585
341819
342056
342293
342534
342780
343012
343244
343484
343730
343965
344194
344427
344662
344899
345141
345374
345607
345840
346085
346320
346553
346787
347027
347262
347501
347741
347978
348210
348453
348693
348931
349163
349404
349643
349887
350129
350373
350610
350860
351106
351350
351589
351834
352075
352321
352564
352803
353038
353283
353521
353761
353996
354235
354470
354713
354955
355193
355426
355672
355916
356156
356390
356629
356864
357107
357346
357580
357811
358056
358300
358538
358769
359006
359241
359482
359726
359963
360195
360438
360685
360927
361159
361394
361629
361870
362114
362350
362583
362824
363069
363308
363541
363778
364014
364258
364505
364740
364973
365214
365459
365693
365922
366153
366386
366624
366866
367098
367328
367563
367810
368043
368275
368511
368748
368985
369227
369697
369931
370175
370407
370639
370869
371107
371339
371578
371812
372048
372279
372522
372764
373002
373229
373464
373696
373935
374172
374403
374630
374866
375108
375343
375569
375800
376032
376270
376509
376739
376970
377202
377442
377671
377903
378132
378366
378593
378828
379060
379295
379522
379764
380002
380241
380473
380712
380948
381192
381440
381678
381907
382151
382398
382637
382867
383104
383339
383582
383825
384063
384297
384541
384789
385031
385265
385508
385747
385991
386239
386476
386711
386956
387202
387445
387679
387919
388158
388408
388656
388896
389132
389378
389627
389871
390105
390344
390579
390824
391071
391307
391537
391781
392023
392260
392488
392723
392954
393191
393431
393664
393894
394137
394385
394623
394852
395089
395327
395570
395813
396049
396284
396524
396773
397013
397248
397487
397726
397972
398222
398461
398698
398942
399191
399435
399668
399906
400143
400390
400635
400873
401106
401350
401598
401836
402066
402305
402542
402784
403029
403264
403497
403737
403983
404223
404456
404694
404931
405174
405418
405656
405892
406131
406379
406622
406858
407096
407338
407582
407826
408065
408302
408542
408791
409033
409266
409502
409741
409985
410228
410463
410698
410938
411185
411425
411662
411897
412135
412374
412614
412852
413086
413318
413558
413794
414030
414262
414495
414727
414966
415209
415444
415672
415915
416156
416391
416618
416853
417088
417326
417567
417800
418027
418264
418509
418748
418980
419220
419461
419708
419958
420199
420438
420679
420929
421172
421406
421645
421884
422127
422374
422611
422847
423091
423341
423585
423821
424060
424299
424547
424797
425034
425270
425515
425764
426005
426238
426476
426714
426957
427204
427441
427674
427919
428165
428404
428636
428873
429108
429348
429593
429831
430064
430305
430555
430793
431025
431262
431500
431744
431993
432231
432465
432709
432960
433203
433435
433670
433907
434149
434395
434631
434868
435115
435368
435615
435858
436105
436347
436596
436845
437087
437326
437575
437823
438066
438309
438553
438794
439040
439284
439523
439760
440005
440251
440493
440728
440968
441205
441446
441691
441928
442160
442403
442648
442887
443119
443352
443586
443823
444062
444294
444525
444763
445006
445243
445474
445709
445945
446186
446428
446659
446893
447126
447369
447601
447833
448062
448296
448533
448774
449010
449245
449479
449724
449962
450198
450432
450670
450903
451143
451382
451618
451849
452091
452332
452570
452806
453048
453285
453527
453770
454006
454240
454481
454725
454963
455194
455429
455664
455905
456149
456384
456616
456857
457105
457349
457585
457826
458066
458312
458560
458800
459038
459285
459531
459772
460005
460241
460475
460716
460959
461194
461428
461675
461922
462163
462401
462641
462882
463126
463375
463617
463853
464100
464350
464594
464833
465320
465566
465810
466048
466282
466525
466765
467004
467237
467475
467713
467955
468195
468435
468670
468918
469163
469403
469639
469882
470121
470366
470609
470848
471085
471333
471576
471819
472058
472302
472539
472783
473026
473266
473500
473745
473987
474226
474459
474700
474935
475178
475419
475657
475891
476139
476383
476624
476858
477098
477336
477579
477823
478062
478294
478538
478782
479022
479258
479499
479738
479985
480233
480479
480721
480971
481220
481468
481710
481956
482198
482449
482694
482937
483178
483430
483675
483919
484156
484402
484645
484893
485135
485376
485612
485862
486100
486338
486573
486814
487051
487296
487535
487775
488011
488258
488495
488731
488966
489210
489447
489691
489932
490176
490416
490671
490917
491159
491394
491638
491881
492128
492363
492602
492842
493097
493340
493582
493823
494069
494315
494566
494807
495049
495293
495545
495786
496025
496266
496508
496752
497002
497240
497475
497716
497965
498202
498431
498664
498897
499134
499375
499604
499831
500058
500297
500525
500751
500973
501205
501431
501662
501889
502118
502341
502574
502807
503035
503258
503485
503713
503947
504183
504411
504640
504872
505112
505342
505571
505798
506031
506260
506495
506722
506948
507169
507401
507632
507859
508078
508299
508520
508745
508977
509198
509419
509640
509874
510099
510325
510546
510772
510993
511221
511451
511670
511888
512112
512344
512561
512782
512997
513222
513442
513670
513899
514122
514346
514574
514811
515038
515261
515487
515716
515949
516183
516412
516642
516868
517104
517337
517572
517798
518033
518263
518502
518738
518970
519196
519434
519671
519904
520130
520365
520597
520835
521079
521314
521548
521792
522043
522287
522524
522769
523012
523262
523516
523765
524004
524252
524504
524752
524987
525232
525473
525720
525963
526207
526445
526696
526943
527188
527425
527670
527913
528162
528405
528646
528887
529142
529385
529627
529866
530109
530349
530595
530834
531075
531313
531562
531801
532040
532279
532521
532762
533007
533246
533482
533717
533963
534196
534428
534656
534894
535130
535368
535603
535841
536074
536322
536563
536803
537041
537286
537528
537776
538016
538258
538499
538750
538994
539238
539481
539729
539980
540233
540477
540720
540970
541226
541473
541711
541954
542194
542440
542688
542925
543158
543400
543648
543888
544119
544357
544594
544836
545082
545320
545555
545795
546042
546280
546509
546741
546978
547214
547453
547688
547925
548161
548408
548647
548884
549121
549363
549607
549854
550094
550333
550571
550821
551061
551298
551534
551774
552014
552259
552498
552737
552978
553230
553472
553713
553955
554200
554445
554691
554930
555169
555409
555658
555897
556131
556368
556607
556850
557094
557331
557567
557806
558055
558297
558532
558766
559005
559244
559486
559720
559952
560186
560433
560669
560902
561136
561375
561616
561856
562090
562325
562561
562808
563043
563278
563513
563752
563990
564232
564468
564702
564932
565176
565412
565646
565878
566115
566347
566588
566827
567064
567295
567538
567778
568015
568244
568484
568716
568954
569190
569429
569662
569905
570147
570390
570624
570866
571106
571352
571595
571836
572071
572317
572560
572803
573038
573276
573511
573757
573997
574234
574468
574713
574955
575199
575433
575674
575908
576154
576398
576636
576868
577117
577363
577604
577839
578080
578317
578561
578805
579047
579281
579529
579778
580023
580258
580501
580739
580984
581228
581470
581704
581948
582190
582430
582666
582903
583138
583381
583625
583864
584097
584343
584589
584830
585062
585304
585541
585786
586030
586270
586502
586747
586989
587229
587462
587703
587939
588185
588431
588674
588909
589157
589404
589648
589886
590131
590367
590612
590858
591099
591333
591581
591829
592072
592306
592549
592789
593035
593278
593518
593753
594001
594244
594484
594715
594952
595186
595427
595663
595898
596132
596376
596615
596855
597091
597330
597565
597809
598052
598290
598524
598770
599009
599246
599479
599718
599953
600198
600442
600684
600921
601172
601421
601666
601907
602155
602399
602647
602893
603135
603376
603627
603870
604109
604350
604595
604841
605090
605330
605571
605815
606067
606311
606547
606787
607026
607274
607519
607755
607991
608231
608478
608720
608954
609191
609428
609672
609920
610157
610390
610631
610878
611115
611347
611582
611818
612057
612295
612529
612761
612995
613241
613476
613709
613943
614183
614420
614659
614896
615134
615365
615845
616083
616313
616545
616774
617012
617250
617486
617713
617952
618192
618430
618657
618891
619122
619361
619600
619833
620062
620304
620547
620782
620988
621249
621487
621733
621980
622219
622453
622696
622945
623187
623421
623662
623899
624145
624395
624636
624871
625118
625371
625619
625859
626106
626349
626600
626850
627095
627335
627589
627838
628082
628320
628563
628803
629048
629286
629523
629759
630005
630243
630480
630712
630948
631179
631417
631652
631887
632115
632353
632589
632824
633052
633284
633512
633752
633992
634224
634453
634694
634940
635180
635411
635651
635890
636137
636385
636629
636863
637112
637361
637605
637842
638085
638326
638574
638819
639066
639306
639557
639803
640052
640295
640542
640786
641037
641282
641524
641768
642022
642267
642509
642746
642989
643234
643482
643721
643957
644198
644451
644692
644928
645169
645411
645654
645901
646143
646381
646622
646873
647113
647348
647588
647828
648072
648317
648557
648798
649041
649293
649537
649773
