125
410
699
991
1306
1615
1914
2207
2489
2782
3072
3372
3694
4003
4294
4582
4869
5169
5468
5771
6087
6383
6667
6955
7246
7549
7857
8164
8474
8767
9047
9336
9633
9944
10250
10545
10846
11136
11414
11710
12022
12333
12635
12929
13224
13512
13799
14105
14411
14720
15015
15301
15602
15890
16187
16494
16805
17110
17393
17684
17982
18275
18574
18883
19189
19485
19769
20058
20363
20666
20970
21274
21570
21860
22149
22437
22749
23058
23352
23650
23947
24243
24523
24824
25144
25443
25736
26028
26324
26608
26902
27224
27523
27827
28118
28402
28702
28988
29271
29578
29876
30157
30436
30713
30996
31285
31582
31878
32176
32462
32731
33006
33293
33591
33879
34056
34372
34667
34949
35238
35537
35848
36158
36457
36758
37047
37331
37625
37927
38244
38542
38821
39112
39397
39680
39973
40276
40585
40876
41153
41447
41729
42009
42314
42612
42912
43199
43477
43763
44051
44348
44647
44941
45240
45517
45795
46085
46376
46675
46974
47264
47557
47837
48113
48401
48705
48999
49289
49576
49855
50140
50415
50697
51009
51309
51594
51879
52157
52438
52721
53007
53314
53611
53889
54170
54448
54729
55015
55311
55614
55907
56188
56465
56738
57031
57326
57617
57918
58212
58487
58762
59041
59332
59634
59930
60220
60511
60788
61059
61345
61643
61943
62238
62527
62827
63117
63403
63702
64012
64326
64623
64910
65207
65497
65783
66087
66397
66702
66998
67279
67579
67876
68174
68477
68790
69083
69367
69660
69957
70254
70561
70864
71165
71463
71746
72040
72341
72651
72948
73255
73548
73836
74123
74426
74731
75034
75341
75625
75924
76212
76499
76814
77129
77425
77715
78005
78296
78589
78886
79201
79512
79805
80097
80384
80680
80979
81281
81593
81897
82176
82471
82756
83062
83370
83670
83984
84279
84561
84849
85145
85453
85756
86058
86359
86649
86937
87228
87533
87850
88151
88443
88741
89033
89313
89616
89921
90233
90530
90816
91115
91407
91699
92004
92310
92621
92907
93193
93489
93782
94083
94386
94691
94997
95278
95568
95873
96172
96473
96782
97079
97370
97660
97944
98260
98558
98862
99154
99456
99743
100030
100329
100644
100949
101245
101535
101827
102117
102407
102715
103027
103328
103623
103910
104203
104497
104793
105103
105416
105711
105997
106281
106581
106882
107182
107497
107803
108090
108377
108665
108966
109273
109573
109886
110177
110460
110751
111043
111355
111667
111963
112264
112558
112838
113129
113432
113744
114051
114347
114641
114935
115220
115521
115831
116147
116441
116722
117028
117311
117603
117910
118216
118523
118816
119097
119401
119694
119993
120304
120605
120907
121190
121475
121772
122079
122381
122686
122987
123283
123569
123857
124164
124473
124769
125069
125360
125651
125935
126231
126547
126853
127152
127444
127733
128030
128319
128622
128939
129240
129530
129819
130108
130400
130704
131009
131324
131628
131910
132195
132486
132794
133091
133400
133712
133995
134279
134571
134871
135176
135480
135791
136086
136367
136656
136952
137254
137563
137871
138164
138457
138747
139034
139338
139657
139961
140252
140547
140842
141121
141421
141726
142037
142340
142626
142922
143210
143509
143814
144120
144431
144720
145002
145299
145593
145892
146200
146505
146814
147097
147382
147684
147988
148291
148594
148891
149189
149473
149754
150069
150376
150678
150982
151274
151565
151852
152146
152461
152769
153064
153355
153641
153936
154227
154531
154850
155158
155451
155733
156024
156323
156617
156920
157242
157534
157816
158103
158397
158697
159001
159314
159617
159907
160191
160478
160784
161086
161388
161697
161993
162278
162564
162857
163170
163482
163779
164076
164372
164655
164943
165242
165556
165861
166157
166455
166744
167035
167333
167637
167951
168248
168534
168828
169121
169408
169715
170024
170331
170624
170908
171209
171505
171804
172111
172415
172717
173004
173289
173585
173889
174191
174496
174797
175091
175380
175660
175971
176276
176579
176882
177171
177462
177746
178044
178358
178668
178968
179260
179554
179843
180134
180436
180752
181060
181345
181632
181921
182221
182515
182828
183141
183441
183729
184012
184308
184606
184906
185214
185523
185809
186096
186386
186689
187000
187303
187608
187904
188190
188471
188765
189073
189382
189685
189985
190278
190569
190853
191158
191471
191775
192064
192366
192652
192936
193235
193541
193858
194156
194443
194737
195036
195323
195625
195935
196246
196537
196820
197115
197406
197706
198015
198319
198625
198909
199192
199498
199796
200096
200404
200702
200994
201277
201567
201873
202180
202483
202783
203081
203372
203658
203951
204266
204570
204870
205161
205453
205746
206038
206341
206660
206966
207255
207543
207744
208041
208340
208650
208960
209262
209550
209835
210127
210432
210731
211038
211353
211648
211927
212215
212513
212814
213118
213426
213730
214020
214305
214589
214899
215215
215510
215816
216113
216396
216680
216972
217287
217595
217894
218194
218489
218768
219061
219372
219678
219984
220278
220566
220858
221150
221448
221757
222072
222368
222653
222948
223240
223535
223842
224150
224451
224740
225020
225322
225619
225923
226233
226535
226834
227117
227400
227708
228010
228311
228614
228909
229202
229491
229778
230089
230402
230703
230997
231288
231582
231867
232169
232484
232785
233083
233366
233661
233955
234250
234563
234874
235173
235460
235745
236035
236334
236633
236941
237256
237545
237830
238122
238419
238725
239029
239337
239640
239926
240205
240498
240798
241109
241414
241718
242013
242294
242587
242886
243199
243503
243803
244099
244386
244676
244966
245272
245588
245893
246183
246482
246772
247058
247359
247672
247978
248275
248561
248857
249149
249445
249755
250059
250365
250655
250932
251235
251532
251834
252142
252443
252740
253027
253308
253614
253921
254227
254525
254825
255119
255402
255694
256006
256312
256605
256905
257195
257485
257777
258074
258395
258698
258991
259280
259571
259865
260159
260466
260777
261076
261371
261655
261953
262252
262551
262861
263172
263466
263745
264033
264333
264632
264935
265246
265546
265836
266122
266410
266719
267022
267325
267635
267923
268206
268496
268792
269106
269415
269711
270014
270307
270587
270884
271190
271500
271803
272092
272392
272678
272967
273268
273576
273889
274186
274468
274769
275058
275350
275663
275964
276269
276558
276842
277139
277438
277742
278045
278355
278650
278936
279225
279527
279832
280133
280435
280732
281020
281314
281602
281914
282225
282520
282821
283111
283400
283687
283987
284302
284609
284903
285191
285489
285778
286073
286387
286697
286991
287285
287571
287861
288162
288458
288773
289082
289376
289659
289950
290253
290547
290850
291164
291463
291747
292036
292328
292631
292932
293241
293548
293839
294127
294416
294712
295028
295328
295625
295932
296214
296496
296793
297095
297410
297714
298007
298307
298595
298877
299176
299489
299798
300092
300381
300675
300963
301259
301565
301879
302184
302475
302761
303055
303356
303650
303956
304271
304564
304844
305135
305439
305736
306049
306351
306649
306941
307221
307519
307824
308125
308432
308731
309024
309314
309600
309909
310218
310521
310828
311113
311407
311695
311982
312297
312612
312905
313200
313492
313788
314078
314374
314698
314999
315290
315578
315865
316163
316460
316761
317077
317380
317662
317956
318242
318547
318855
319156
319465
319759
320038
320322
320624
320933
321240
321548
321846
322133
322417
322708
323017
323321
323626
323924
324219
324499
324790
325095
325412
325715
326011
326304
326593
326880
327180
327484
327795
328097
328380
328678
328970
329263
329574
329878
330189
330483
330764
331058
331353
331657
331957
332265
332565
332851
333139
333440
333742
334049
334351
334647
334938
335228
335510
335823
336130
336431
336732
337023
337318
337612
337901
338218
338521
338818
339104
339400
339694
339982
340286
340602
340905
341193
341486
341775
342070
342368
342681
342994
343289
343572
343861
344159
344456
344757
345075
345381
345666
345959
346242
346543
346853
347152
347461
347757
348041
348324
348623
348936
349240
349540
349843
350137
350417
350711
351015
351323
351627
351922
352216
352507
352795
353098
353402
353718
354021
354301
354596
354887
355178
355481
355790
356106
356389
356672
356972
357265
357563
357872
358178
358479
358765
359047
359348
359649
359946
360255
360558
360852
361139
361427
361735
362043
362341
362640
362936
363226
363510
363808
364121
364427
364723
365020
365311
365602
365891
366200
366510
366813
367106
367392
367686
367980
368276
368588
368901
369195
369482
369773
370069
370365
370670
370987
371286
371570
371865
372148
372445
372758
373056
373375
373669
373948
374241
374532
374841
375145
375444
375751
376037
376325
376617
376920
377237
377537
377833
378129
378418
378705
379000
379307
379622
379914
380204
380507
380792
381082
381394
381700
382007
382301
382585
382879
383173
383472
383776
384085
384392
384673
384963
385267
385558
385862
386169
386474
386760
387044
387337
387643
387948
388252
388552
388854
389141
389421
389727
390032
390334
390643
390933
391224
391512
391802
392110
392419
392728
393022
393311
393604
393893
394191
394509
394814
395105
395394
395677
395978
396277
396577
396898
397200
397485
397767
398061
398359
398660
398971
399281
399572
399853
400139
400435
400746
401056
401364
401666
401949
402233
402520
402826
403141
403436
403738
404037
404317
404607
404910
405220
405527
405829
406120
406409
406696
406990
407293
407609
407915
408202
408503
408789
409080
409388
409691
410004
410297
410579
410870
411170
411463
411775
412081
412385
412674
412960
413256
413557
413860
414165
414463
414769
415045
415328
415637
415941
416246
416554
416845
417140
417426
417716
418028
418338
418635
418928
419221
419510
419801
420100
420421
420724
421015
421304
421595
421890
422188
422491
422804
423107
423389
423674
423970
424265
424572
424883
425192
425484
425770
426054
426352
426659
426957
427270
427575
427853
428144
428440
428744
429052
429350
429658
429952
430237
430521
430821
431134
431432
431730
432034
432323
432611
432904
433209
433526
433832
434112
434412
434695
434987
435291
435597
435909
436206
436489
436786
437079
437372
437676
437987
438287
438574
438861
439164
439456
439755
440065
440370
440667
440954
441244
441545
441853
442151
442455
442755
443044
443330
443631
443934
444243
444541
444836
445138
445424
445706
446018
446327
446627
446924
447213
447506
447796
448093
448406
448719
449019
449307
449593
449893
450183
450482
450810
451105
451397
451684
451969
452278
452570
452874
453193
453490
453771
454058
454346
454649
454958
455259
455566
455860
456138
456428
456732
457041
457345
457648
457948
458227
458516
458808
459117
459429
459732
460027
460323
460605
460897
461200
461514
461817
462111
462406
462695
462979
463282
463588
463905
464202
464486
464786
465077
465366
465676
465977
466288
466578
466861
467160
467454
467755
468065
468370
468670
468964
469242
469545
469849
470146
470447
470749
471037
471328
471620
471925
472233
472540
472829
473129
473420
473700
474006
474317
474622
474923
475210
475498
475798
476086
476395
476718
477013
477301
477592
477883
478171
478475
478785
479094
479391
479677
479964
480264
480563
480866
481178
481482
481766
482054
482344
482646
482951
483256
483565
483856
484146
484434
484729
485046
485348
485644
485951
486236
486519
486806
487112
487427
487726
488023
488327
488614
488894
489193
489507
489809
490108
490398
490691
490982
491276
491577
491894
492200
492487
492773
493073
493359
493662
493973
494281
494574
494857
495153
495447
495746
496062
496360
496664
496955
497234
497531
497837
498138
498442
498745
499036
499321
499610
499919
500227
500536
500833
501124
501421
501705
501991
502312
502616
502913
503213
503497
503790
504084
504386
504697
505003
505300
505583
505873
506171
506464
506770
507087
507382
507669
507954
508164
508462
508763
509066
509380
509675
509958
510244
510538
510847
511148
511455
511768
512056
512339
512628
512929
513237
513538
513843
514135
514421
514714
515004
515316
515628
515927
516220
516519
516800
517096
517399
517710
518017
518307
518598
518887
519181
519481
519788
520107
520401
520681
520983
521269
521563
521868
522178
522483
522769
523058
523354
523654
523956
524260
524570
524860
525147
525436
525733
526039
526341
526643
526943
527236
527517
527813
528126
528435
528732
529028
529323
529607
529895
530194
530505
530811
531110
531401
531696
531988
532279
532592
532907
533197
533492
533782
534075
534366
534669
534984
535291
535581
535873
536157
536458
536760
537056
537377
537673
537954
538243
538534
538837
539141
539450
539760
540051
540332
540620
540920
541232
541537
541834
542137
542430
542706
542999
543313
543623
543922
544223
544524
544797
545091
545392
545703
546012
546304
546596
546888
547177
547472
547780
548098
548393
548686
548979
549266
549561
549866
550170
550484
550770
551050
551355
551654
551946
552259
552564
552862
553149
553432
553731
554033
554332
554638
554942
555231
555518
555811
556120
556423
556724
557025
557318
557606
557896
558197
558501
558813
559110
559404
559698
559987
560274
560587
560896
561191
561493
561777
562072
562362
562656
562975
563286
563577
563871
564056
564353
564648
564955
565264
565571
565862
566150
566432
566731
567034
567343
567657
567961
568238
568530
568817
569121
569430
569730
570034
570326
570609
570901
571205
571516
571819
572118
572418
572705
572991
573285
573586
573902
574199
574500
574793
575086
575370
575675
575987
576294
576588
576879
577168
577461
577756
578059
578374
578680
578961
579253
579552
579845
580145
580454
580765
581055
581338
581636
581929
582229
582542
582844
583143
583433
583720
584018
584323
584635
584930
585227
585523
585807
586089
586397
586711
587010
587314
587604
587894
588185
588477
588791
589099
589398
589682
589971
590272
590557
590866
591181
591484
591778
592059
592354
592647
592948
593254
593566
593860
594146
594437
594731
595032
595336
595652
595951
596235
596526
596815
597115
597423
597725
598036
598330
598617
598901
599198
599515
599817
600113
600427
600712
600989
601281
601588
601895
602200
602494
602793
603082
603368
603668
603980
604292
604583
604877
605171
605455
605747
606051
606368
606669
606961
607255
607551
607840
608142
608449
608760
609052
609338
609633
609926
610213
610525
610837
611137
611428
611707
612009
612308
612612
612921
613221
613513
613793
614083
614390
614697
615003
615303
615600
615893
616176
616469
616782
617090
617385
617684
617973
618263
618555
618858
619172
619478
619770
620056
620354
620645
620934
621250
621560
621854
622147
622433
622730
623025
623326
623649
623950
624235
624522
624810
625112
625409
625714
626029
626327
626610
626901
627190
627500
627801
628104
628413
628698
628978
629272
629570
629882
630192
630491
630789
631076
631362
631655
631964
632277
632572
632867
633165
633447
633741
634044
634358
634663
634956
635250
635543
635826
636132
636436
636746
637046
637330
637627
637916
638219
638523
638832
639141
639430
639709
640007
640307
640605
640918
641217
641516
641803
642086
642393
642701
643002
643304
643602
643889
644175
644461
644777
645081
645387
645681
645976
646267
646556
646857
647173
647479
647767
648058
648348
648645
648934
649248
649554
649858
