262
572
873
1177
1479
1792
2125
2441
2742
3041
3344
3644
3952
4280
4607
4936
5252
5577
5889
6214
6550
6869
7175
7479
7778
8094
8415
8736
9057
9358
9660
9961
10276
10595
10908
11220
11517
11800
12094
12392
12695
12998
13298
13595
13882
14166
14458
14766
15079
15380
15680
15974
16265
16572
16883
17216
17533
17834
18143
18442
18736
19045
19363
19685
19987
20283
20590
20891
21197
21514
21834
22133
22420
22725
23024
23324
23636
23952
24265
24558
24857
25163
25462
25770
26080
26386
26681
26971
27270
27572
27871
28184
28489
28781
29061
29341
29647
29952
30256
30571
30877
31178
31476
31789
32113
32433
32755
33063
33371
33676
33978
34306
34626
34936
35235
35537
35843
36152
36473
36801
37113
37415
37715
38024
38329
38644
38971
39281
39575
39870
40175
40478
40786
41102
41410
41704
41993
42282
42588
42899
43200
43518
43824
44111
44401
44701
45011
45320
45626
45926
46213
46496
46781
47088
47387
47680
47975
48259
48538
48823
49111
49419
49725
50022
50322
50615
50904
51207
51516
51837
52145
52444
52746
53042
53333
53638
53949
54253
54548
54838
55123
55407
55703
56002
56301
56587
56861
57144
57436
57734
58050
58372
58700
59021
59340
59657
59975
60292
60620
60939
61242
61535
61844
62157
62470
62789
63103
63411
63707
64021
64354
64681
65011
65325
65636
65936
66236
66569
66893
67207
67521
67828
68133
68439
68769
69100
69424
69736
70048
70361
70675
71007
71343
71667
71977
72284
72595
72903
73225
73556
73864
74163
74457
74764
75068
75376
75700
76009
76296
76591
76888
77190
77498
77810
78122
78412
78695
78983
79286
79591
79893
80203
80503
80791
81083
81371
81685
81992
82289
82603
82900
83185
83481
83785
84099
84402
84696
84989
85271
85545
85833
86134
86437
86732
87021
87308
87588
87869
88163
88467
88766
89053
89337
89626
89904
90191
90493
90798
91100
91385
91671
91963
92250
92548
92849
93150
93437
93717
94002
94285
94572
94872
95162
95452
95719
95975
96235
96507
96787
97075
97374
97670
97967
98253
98554
98880
99186
99492
99803
100106
100399
100687
101001
101324
101640
101958
102270
102577
102882
103199
103525
103844
104163
104472
104787
105093
105412
105755
106080
106396
106703
107017
107333
107650
107991
108317
108616
108919
109226
109535
109845
110169
110486
110789
111087
111386
111702
112019
112337
112656
112958
113255
113556
113874
114200
114523
114856
115172
115474
115780
116092
116414
116732
117049
117355
117655
117958
118270
118594
118912
119227
119538
119835
120131
120436
120755
121073
121376
121676
121968
122257
122561
122871
123185
123488
123773
124071
124359
124643
124946
125254
125558
125851
126140
126443
126748
127059
127381
127710
128026
128324
128635
128947
129264
129583
129899
130206
130497
130790
131101
131407
131711
132024
132335
132627
132916
133214
133514
133805
134087
134365
134648
134929
135225
135553
135897
136229
136560
136892
137219
137539
137891
138231
138556
138871
139188
139504
139816
140152
140486
140803
141112
141422
141735
142046
142373
142698
143008
143310
143611
143918
144218
144526
144848
145155
145449
145739
146043
146356
146670
146991
147314
147616
147921
148229
148554
148876
149193
149522
149828
150126
150435
150760
151083
151396
151714
152013
152305
152597
152911
153241
153560
153878
154187
154489
154803
155121
155454
155775
156076
156388
156688
156986
157303
157629
157945
158248
158551
158846
159141
159455
159780
160109
160419
160731
161048
161363
161690
162020
162357
162673
162976
163290
163595
163903
164220
164533
164825
165115
165414
165717
166025
166342
166659
166963
167251
167544
167860
168171
168480
168790
169103
169406
169703
170019
170346
170663
170983
171288
171589
171884
172186
172516
172833
173140
173452
173761
174064
174367
174694
175010
175318
175617
175910
176208
176505
176815
177132
177440
177735
178024
178314
178605
178900
179210
179522
179817
180118
180422
180735
181055
181376
181711
182025
182322
182630
182945
183260
183576
183905
184207
184502
184802
185108
185431
185747
186060
186369
186664
186971
187278
187603
187924
188235
188548
188847
189139
189447
189767
190086
190401
190715
191022
191331
191648
191972
192313
192631
192939
193253
193564
193887
194218
194558
194882
195187
195512
195826
196149
196480
196813
197132
197434
197746
198058
198369
198692
199012
199319
199616
199919
200228
200546
200867
201184
201499
201797
202097
202419
202737
203058
203373
203685
203986
204275
204581
204901
205213
205524
205834
206142
206449
206761
207088
207403
207716
208019
208324
208616
208915
209239
209551
209852
210148
210437
210733
211027
211322
211632
211928
212211
212490
212772
213060
213355
213659
213970
214268
214559
214848
215149
215454
215763
216090
216402
216700
216997
217297
217616
217930
218251
218576
218873
219168
219469
219782
220096
220404
220726
221029
221315
221613
221926
222243
222557
222876
223181
223477
223777
224084
224411
224726
225033
225345
225639
225929
226232
226547
226857
227155
227448
227747
228032
228318
228626
228949
229264
229557
229859
230160
230455
230758
231067
231377
231671
231960
232261
232560
232871
233198
233522
233852
234150
234466
234780
235097
235419
235733
236045
236343
236640
236952
237264
237578
237892
238199
238491
238782
239095
239409
239719
240032
240342
240641
240935
241245
241567
241886
242207
242514
242816
243106
243400
243721
244037
244340
244647
244951
245253
245557
245879
246205
246518
246821
247119
247420
247716
248027
248357
248672
248976
249280
249592
249912
250233
250571
250898
251203
251506
251809
252125
252446
252774
253097
253401
253701
254005
254320
254634
254949
255271
255568
255862
256160
256475
256795
257113
257437
257746
258044
258357
258667
258993
259310
259620
259930
260227
260522
260833
261156
261473
261782
262093
262385
262677
262982
263300
263621
263925
264228
264534
264834
265144
265469
265802
266117
266416
266731
267031
267331
267647
267966
268278
268573
268869
269169
269465
269775
270091
270408
270701
270988
271294
271601
271909
272223
272537
272842
273134
273438
273753
274068
274393
274713
275029
275328
275627
275958
276289
276595
276901
277203
277487
277769
278075
278393
278714
279030
279339
279655
279964
280296
280634
280962
281290
281605
281922
282239
282566
282907
283229
283547
283860
284179
284492
284820
285160
285484
285790
286099
286418
286737
287060
287400
287717
288024
288329
288648
288974
289302
289641
289959
290260
290567
290875
291195
291517
291842
292160
292457
292760
293074
293404
293727
294046
294366
294665
294955
295259
295586
295905
296213
296529
296833
297129
297438
297754
298083
298404
298713
299023
299323
299640
299967
300299
300614
300921
301232
301534
301839
302162
302495
302810
303113
303430
303738
304047
304371
304701
305023
305327
305641
305962
306283
306619
306952
307279
307576
307879
308193
308508
308829
309148
309466
309766
310073
310397
310722
311050
311377
311700
312017
312324
312658
312983
313312
313659
313989
314312
314627
314966
315302
315628
315952
316268
316573
316892
317233
317571
317900
318219
318546
318866
319182
319524
319851
320170
320478
320793
321112
321435
321777
322108
322417
322727
323036
323351
323677
324018
324348
324654
324954
325259
325562
325857
326156
326462
326755
327040
327334
327647
327975
328295
328631
328954
329265
329578
329900
330238
330563
330881
331188
331474
331769
332075
332395
332713
333029
333350
333655
333958
334275
334609
334928
335228
335540
335840
336143
336461
336784
337117
337432
337741
338054
338364
338697
339029
339365
339695
340014
340345
340674
341010
341347
341686
342000
342320
342642
342970
343304
343635
343964
344274
344584
344899
345215
345544
345862
346178
346478
346775
347090
347414
347738
348073
348408
348730
349048
349389
349723
350056
350379
350694
351000
351302
351635
351956
352269
352581
352888
353189
353490
353811
354139
354461
354775
355077
355382
355687
356002
356333
356655
356966
357266
357580
357887
358203
358541
358861
359171
359474
359782
360096
360413
360749
361076
361392
361702
362012
362341
362668
362998
363330
363645
363954
364275
364606
364933
365269
365597
365902
366212
366532
366859
367176
367495
367809
368097
368391
368697
369019
369333
369644
369962
370264
370554
370859
371189
371517
371840
372161
372472
372771
373081
373402
373728
374035
374343
374651
374945
375251
375574
375898
376213
376517
376834
377138
377443
377769
378102
378420
378726
379039
379355
379670
379997
380327
380649
380950
381256
381564
381869
382191
382508
382826
383125
383417
383736
384056
384378
384704
385030
385342
385644
385963
386288
386605
386918
387228
387532
387828
388139
388465
388784
389109
389423
389736
390033
390338
390674
390991
391298
391600
391895
392190
392474
392765
393053
393322
393580
393830
394078
394325
394564
394807
395065
395317
395565
395802
396036
396272
396516
396758
397011
397283
397567
397844
398109
398383
398669
398967
399273
399587
399909
400216
400520
400827
401155
401486
401826
402162
402479
402800
403131
403474
403807
404147
404481
404791
405098
405402
405722
406042
406355
406682
406991
407301
407626
407952
408283
408613
408935
409227
409517
409829
410172
410495
410814
411138
411452
411753
412067
412400
412730
413021
413298
413574
413833
414089
414357
414628
414900
415163
415418
415685
415948
416213
416497
416787
417089
417390
417687
417994
418273
418636
418973
419302
419625
419929
420247
420571
420892
421231
421561
421879
422190
422510
422841
423169
423511
423840
424157
424464
424777
425098
425417
425738
426051
426364
426675
426995
427342
427676
428017
428341
428663
428980
429313
429668
429998
430331
430651
430971
431284
431615
431956
432282
432584
432865
433136
433403
433669
433955
434243
434527
434806
435078
435355
435634
435908
436195
436482
436749
437001
437254
437510
437772
438036
438304
438587
438864
439131
439403
439681
439974
440271
440570
440891
441200
441504
441810
442133
442476
442810
443151
443476
443784
444098
444430
444771
445103
445447
445774
446082
446403
446741
447074
447403
447733
448044
448352
448669
449003
449332
449649
449967
450274
450574
450892
451210
451532
451842
452140
452449
452744
453033
453344
453670
453982
454275
454580
454888
455195
455513
455840
456170
456479
456796
457113
457440
457785
458116
458449
458767
459088
459416
459751
460094
460435
460760
461075
461400
461735
462061
462385
462709
463030
463339
463665
464000
464338
464669
464986
465293
465592
465911
466234
466551
466871
467177
467478
467765
468055
468373
468693
468995
469295
469604
469908
470218
470559
470898
471219
471532
471842
472151
472459
472789
473111
473410
473712
474012
474314
474612
474918
475245
475558
475853
476158
476484
476786
477077
477376
477661
477928
478192
478449
478716
478987
479256
479534
479824
480096
480364
480649
480947
481257
481574
481906
482234
482540
482859
483184
483514
483846
484181
484508
484817
485126
485438
485772
486092
486419
486745
487055
487379
487718
488068
488405
488738
489064
489375
489636
490039
490392
490724
491050
491372
491693
492016
492341
492675
492982
493282
493589
493892
494216
494539
494873
495192
495501
495815
496124
496454
496791
497120
497431
497738
498051
498359
498673
498998
499335
499643
499947
500273
500592
500913
501234
501565
501879
502184
502519
502861
503190
503522
503854
504172
504486
504817
505155
505485
505814
506136
506447
506763
507096
507427
507748
508066
508377
508676
508971
509291
509612
509927
510250
510562
510876
511191
511528
511869
512188
512502
512805
513111
513400
513692
514000
514306
514605
514906
515231
515560
515894
516259
516610
516932
517250
517584
517918
518250
518593
518916
519221
519531
519855
520182
520507
520848
521164
521467
521773
522096
522420
522727
523042
523339
523626
523920
524217
524543
524870
525196
525509
525804
526112
526435
526765
527096
527425
527748
528039
528341
528655
528992
529316
529641
529974
530291
530604
530934
531283
531617
531937
532267
532585
532909
533248
533597
533934
534251
534576
534889
535214
535544
535868
536173
536479
536799
537117
537451
537776
538099
538397
538677
538973
539261
539555
539869
540194
540514
540824
541141
541471
541802
542142
542479
542802
543112
543432
543754
544079
544410
544734
545048
545353
545668
545999
546329
546666
546986
547307
547620
547933
548266
548592
548915
549231
549550
549855
550170
550504
550833
551158
551467
551777
552081
552392
552728
553045
553356
553660
553963
554265
554574
554911
555237
555542
555846
556158
556474
556794
557137
557479
557811
558130
558458
558789
559114
559462
559795
560104
560401
560708
561030
561354
561680
562004
562311
562618
562924
563237
563556
563879
564199
564505
564816
565125
565452
565777
566112
566443
566748
567060
567383
567722
568049
568377
568705
569005
569304
569619
569948
570271
570584
570904
571212
571510
571812
572133
572455
572758
573061
573355
573651
573961
574282
574611
574926
575226
575533
575832
576148
576471
576797
577110
577417
577734
578049
578367
578707
579053
579372
579679
580005
580319
580627
580941
581262
581573
581866
582177
582493
582812
583138
583461
583776
584078
584387
584703
585027
585362
585695
586019
586331
586654
586982
587312
587643
587962
588278
588581
588895
589226
589545
589871
590193
590505
590806
591116
591453
591784
592112
592437
592760
593070
593393
593733
594066
594397
594715
595026
595331
595643
595975
596295
596608
596916
597220
597528
597844
598182
598505
598815
599127
599443
599756
600077
600423
600753
601078
601389
601716
602050
602386
602738
603069
603381
603695
604020
604343
604662
604998
605318
605617
605925
606244
606571
606906
607243
607558
607863
608173
608500
608830
609148
609480
609787
610081
610378
610677
610997
611308
611622
611951
612259
612568
612892
613234
613562
613883
614205
614517
614834
615162
615504
615828
616143
616458
616763
617080
617414
617760
618097
618418
618744
619058
619383
619720
620063
620387
620704
621026
621341
621674
622012
622351
622665
622973
623284
623584
623893
624195
624497
624793
625080
625383
625689
626009
626344
626679
626993
627300
627619
627951
628284
628619
628958
629279
629582
629904
630230
630556
630882
631199
631511
631812
632125
632445
632761
633082
633388
633683
633975
634276
634600
634929
635262
635592
635918
636235
636567
636921
637262
637602
637928
638260
638583
638921
639265
639595
639921
640234
640552
640867
641196
641528
641848
642157
642461
642774
643085
643411
643743
644056
644361
644666
644979
645284
645600
645944
646267
646573
646888
647213
647545
647877
648225
648555
648870
649192
649532
649872
