195
457
707
963
1221
1477
1739
2013
2286
2549
2801
3051
3301
3561
3833
4100
4369
4633
4898
5153
5406
5553
5921
6193
6467
6735
6994
7244
7504
7766
7915
8289
8562
8827
9091
9350
9598
9843
10104
10379
10643
10906
11167
11423
11674
11930
12185
12448
12619
12985
13251
13506
13754
14004
14250
14515
14785
15051
15309
15573
15833
16082
16333
16588
16852
17126
17397
17658
17915
18167
18424
18680
18944
19211
19481
19744
20006
20261
20513
20762
21029
21195
21573
21836
22098
22349
22602
22858
23112
23373
23638
23914
24179
24429
24677
24835
25190
25460
25731
25997
26251
26515
26770
27018
27271
27527
27793
28064
28333
28589
28834
29087
29346
29602
29866
30134
30399
30660
30915
31165
31415
31666
31932
32205
32474
32734
32984
33233
33489
33747
34008
34272
34541
34816
35075
35322
35571
35830
36092
36364
36631
36786
37150
37411
37665
37914
38164
38428
38691
38957
39224
39475
39719
39973
40231
40486
40745
41007
41270
41525
41780
42025
42273
42523
42790
43056
43322
43572
43819
44059
44310
44566
44814
45073
45337
45607
45755
46101
46345
46592
46842
47104
47370
47634
47887
48138
48392
48642
48888
49143
49409
49677
49942
50197
50447
50691
50947
51206
51470
51734
52000
52256
52511
52768
53019
53270
53535
53813
54076
54331
54586
54836
55090
55348
55606
55872
56138
56412
56666
56917
57167
57306
57664
57939
58209
58471
58729
58984
59239
59492
59741
60000
60268
60541
60807
61061
61310
61558
61817
62079
62347
62607
62874
63128
63381
63634
63884
64133
64399
64673
64936
65187
65435
65685
65932
66188
66442
66706
66859
67227
67486
67736
67977
68225
68475
68740
69008
69266
69522
69771
70025
70272
70523
70780
71045
71310
71578
71831
72079
72327
72477
72844
73115
73378
73641
73902
74161
74290
74658
74916
75182
75457
75725
75981
76232
76483
76737
76995
77256
77525
77786
78053
78311
78561
78806
79061
79315
79582
79854
80117
80367
80622
80880
81129
81378
81639
81905
82169
82436
82688
82934
83181
83443
83701
83969
84230
84491
84745
85002
85257
85505
85759
86029
86304
86568
86820
87071
87318
87570
87830
88092
88364
88629
88899
89157
89408
89656
89909
90170
90441
90713
90979
91232
91485
91745
91999
92252
92521
92790
93060
93329
93582
93828
94083
94353
94617
94883
95155
95420
95680
95934
96187
96444
96705
96982
97254
97521
97776
98028
98276
98540
98808
99075
99341
99614
99880
100135
100382
100633
100893
101163
101439
101700
101959
102106
102468
102719
102973
103232
103500
103761
104023
104276
104527
104770
105025
105292
105558
105815
106079
106338
106587
106841
107090
107343
107601
107876
108019
108393
108646
108895
109138
109395
109660
109925
110185
110452
110715
110962
111206
111455
111710
111975
112245
112506
112761
113012
113268
113517
113773
114032
114302
114565
114832
115088
115336
115582
115836
116102
116373
116636
116898
117157
117411
117666
117916
118172
118337
118712
118981
119237
119486
119736
119969
120242
120506
120775
121033
121300
121558
121811
122054
122309
122566
122836
123111
123376
123627
123878
124139
124390
124643
124910
125180
125446
125714
125970
126102
126465
126732
126999
127269
127535
127797
128050
128308
128565
128818
129078
129349
129625
129890
130141
130390
130644
130900
131159
131423
131690
131952
132218
132469
132718
132963
133220
133482
133755
134024
134288
134535
134787
135046
135303
135557
135826
136093
136363
136625
136877
137125
137377
137648
137915
138183
138446
138711
138961
139218
139472
139729
139993
140270
140543
140807
141059
141307
141557
141822
142091
142359
142623
142892
143154
143408
143656
143910
144175
144447
144721
144984
145244
145495
145752
146007
146266
146530
146800
146940
147326
147583
147834
148081
148340
148612
148883
149141
149400
149652
149905
150161
150412
150671
150936
151210
151471
151724
151972
152224
152473
152733
152999
153267
153529
153795
154052
154305
154555
154815
155077
155352
155627
155885
156136
156389
156647
156797
157164
157430
157697
157963
158222
158470
158719
158967
159230
159495
159764
160027
160282
160530
160781
161035
161287
161545
161813
162088
162350
162594
162841
163093
163346
163609
163751
164141
164405
164668
164922
165172
165421
165680
165839
166214
166491
166751
166999
167253
167511
167768
168027
168295
168560
168826
169086
169335
169586
169842
170113
170380
170650
170915
171176
171427
171681
171936
172197
172460
172731
172999
173261
173509
173756
173937
174271
174541
174804
175069
175328
175589
175839
176086
176336
176600
176869
177138
177400
177657
177900
178155
178412
178669
178922
179190
179453
179712
179971
180216
180462
180721
180992
181258
181520
181783
182039
182289
182542
182798
183059
183322
183596
183865
184123
184371
184619
184871
185135
185409
185675
185942
186204
186465
186717
186966
187222
187488
187761
188030
188288
188543
188788
189045
189298
189558
189820
190091
190355
190612
190866
191115
191364
191625
191899
192169
192428
192690
192942
193196
193452
193709
193974
194241
194518
194782
195036
195287
195540
195796
196066
196339
196605
196868
197134
197392
197646
197901
198163
198321
198702
198974
199227
199475
199729
199985
200241
200501
200763
201027
201290
201544
201789
202039
202294
202560
202826
203095
203353
203607
203857
204108
204366
204628
204888
205157
205429
205689
205934
206182
206435
206696
206965
207235
207500
207764
208028
208279
208529
208787
209057
209326
209600
209867
210124
210371
210633
210890
211156
211421
211688
211950
212213
212472
212720
212970
213234
213510
213783
214047
214307
214564
214820
215081
215337
215605
215874
216152
216416
216671
216921
217177
217436
217702
217976
218246
218506
218765
219021
219275
219527
219791
220059
220333
220607
220865
221114
221369
221633
221896
222159
222430
222698
222962
223223
223476
223729
223988
224267
224535
224804
225067
225322
225578
225834
226090
226360
226628
226902
227173
227430
227676
227931
228182
228453
228728
228996
229259
229523
229780
230034
230287
230547
230817
231090
231254
231621
231877
232127
232389
232654
232919
233187
233460
233722
233983
234237
234490
234745
235023
235298
235568
235830
236091
236341
236597
236862
237131
237397
237673
237948
238077
238445
238696
238950
239214
239492
239759
240016
240277
240536
240788
241036
241290
241559
241828
241973
242351
242607
242854
243107
243365
243630
243892
244155
244415
244673
244925
245171
245422
245681
245957
246224
246483
246738
246993
247245
247497
247753
248016
248280
248553
248816
249066
249311
249562
249813
250082
250358
250624
250882
251138
251397
251648
251895
252156
252422
252696
252967
253224
253474
253729
253990
254252
254417
254792
255061
255325
255587
255840
256092
256352
256629
256904
257177
257443
257698
257954
258216
258481
258750
259021
259297
259571
259831
260082
260337
260597
260871
261154
261429
261695
261958
262225
262485
262738
263005
263280
263555
263831
264091
264344
264599
264867
265130
265398
265671
265943
266207
266470
266724
266978
267244
267524
267794
268065
268328
268583
268837
269098
269362
269517
269896
270174
270438
270697
270947
271198
271455
271727
272001
272266
272528
272787
273047
273304
273557
273819
274091
274367
274637
274893
275146
275397
275659
275920
276185
276452
276720
276977
277231
277483
277740
277993
278268
278541
278811
279070
279325
279575
279831
280098
280361
280622
280893
281165
281418
281661
281912
282164
282428
282701
282965
283228
283485
283745
283991
284242
284499
284764
285028
285295
285555
285805
286051
286304
286559
286824
287086
287349
287610
287867
288121
288366
288617
288871
289143
289412
289676
289926
290177
290426
290680
290941
291206
291468
291739
292006
292260
292503
292754
293008
293271
293544
293809
294067
294323
294582
294828
295077
295335
295601
295863
296130
296391
296532
296881
297139
297398
297659
297921
298182
298439
298696
298949
299195
299443
299703
299975
300240
300502
300752
301005
301254
301509
301766
302031
302292
302559
302820
303071
303313
303560
303810
304075
304341
304604
304862
305111
305364
305609
305851
306621
306885
307141
307389
307626
307873
308131
308389
308645
308904
309165
309414
309662
309906
310149
310398
310665
310929
311190
311443
311571
311927
312177
312429
312679
312934
313193
313457
313701
313941
314180
314409
314654
314904
315170
315415
315665
315906
316144
316383
316624
316866
317118
317373
317632
317889
318132
318373
318614
318867
319119
319375
319628
319888
320140
320386
320631
320879
321123
321381
321650
321910
322160
322410
322658
322902
323151
323403
323666
323927
324192
324452
324701
324943
325195
325443
325706
325979
326239
326495
326750
327008
327256
327508
327765
328034
328301
328570
328828
329078
329328
329588
329851
330119
330385
330649
330910
331167
331421
331672
331927
332192
332469
332738
332996
333248
333500
333756
334012
334273
334541
334805
335077
335337
335586
335834
336092
336349
336620
336893
337161
337415
337673
337930
338183
338435
338701
338968
339238
339509
339761
340008
340264
340528
340791
341057
341329
341592
341854
342112
342361
342616
342877
343153
343417
343687
343945
344201
344452
344713
344977
345244
345514
345790
346058
346318
346567
346823
347084
347360
347636
347909
348171
348435
348696
348954
349209
349474
349747
350016
350285
350541
350791
351047
351313
351580
351845
352118
352386
352649
352910
353164
353421
353686
353969
354235
354499
354761
355017
355275
355541
355810
356082
356357
356642
356906
357164
357421
357682
357949
358223
358493
358760
359021
359281
359534
359792
360053
360322
360592
360865
361131
361385
361633
361890
362152
362422
362687
362953
363218
363478
363732
363982
364236
364496
364774
365044
365307
365562
365816
366065
366319
366579
366842
367104
367374
367638
367886
368131
368380
368629
368893
369164
369424
369679
369932
370184
370426
370679
370923
371183
371374
371701
371962
372205
372442
372687
372939
373193
373447
373704
373958
374210
374457
374698
374943
375191
375453
375716
375981
376224
376467
376708
376954
377202
377450
377708
377963
378225
378475
378717
378954
379196
379441
379698
379962
380218
380468
380713
380962
381201
381439
381687
381946
382199
382457
382710
382952
383185
383426
383677
383929
384176
384429
384679
384924
385168
385406
385642
385877
386130
386393
386645
386891
387135
387376
387613
387857
388092
388353
388605
388862
389119
389363
389597
389836
390079
390329
390587
390843
391101
391349
391592
391840
392083
392322
392568
392828
393089
393347
393592
393838
394076
394323
394573
394829
395080
395336
395589
395838
396085
396323
396567
396816
397082
397340
397596
397848
398092
398332
398586
398832
399085
399339
399601
399868
400117
400359
400604
400853
401105
401368
401633
401893
402144
402398
402647
402895
403141
403397
403661
403931
404198
404447
404690
404936
405193
405445
405706
405966
406228
406480
406729
406978
407224
407471
407729
408000
408265
408514
408761
409007
409248
409495
409740
409999
410254
410515
410779
411024
411259
411519
411750
412006
412272
412532
412785
413044
413280
413522
413765
414013
414270
414529
414794
415057
415304
415545
415798
416054
416307
416566
416832
417092
417350
417601
417849
418096
418347
418615
418877
419141
419395
419641
419880
420131
420382
420631
420888
421150
421416
421667
421911
422154
422402
422652
422912
423175
423434
423686
423938
424187
424433
424671
424921
425180
425442
425701
425949
426193
426431
426676
426926
427068
427427
427686
427936
428181
428425
428664
428900
429142
429401
429656
429906
430160
430390
430623
430857
431113
431359
431588
431840
432097
432339
432573
432808
433022
433263
433509
433633
433998
434247
434379
434722
434910
435161
435414
435665
435894
436137
436387
436633
436884
437089
437310
437529
437811
437936
438290
438534
438783
439027
439235
439450
439680
439906
440154
440417
440659
440903
441103
441441
441575
441807
442016
442277
442510
442772
443006
443258
443475
443715
443939
444167
444408
444662
444903
445144
445373
445621
445851
446085
446311
446552
446791
447041
447291
447493
447757
447925
448068
448215
448477
448715
448924
449171
449411
449649
449884
450153
450332
450562
450798
451044
451288
451530
451764
451995
452222
452452
452685
452916
453160
453402
453652
453891
454132
454356
454583
454809
455053
455297
455542
455788
456024
456260
456496
456668
456949
457153
457456
457666
457913
458158
458390
458613
458839
459074
459305
459541
459778
460018
460254
460490
460719
460944
461164
461386
461625
461870
462108
462341
462577
462805
463027
463255
463465
463626
463944
464193
464437
464671
464906
465127
465349
465572
465806
466044
466284
466527
466759
466997
467228
467454
467678
467903
468137
468374
468628
468862
469096
469326
469567
469791
469982
470259
470475
470709
470962
471203
471435
471648
472116
472343
472595
472865
473080
473318
473555
473786
473980
474205
474476
474714
474957
475197
475564
475677
475906
476182
476371
476625
476858
477072
477368
477521
477771
478009
478253
478473
478751
478943
479241
479426
479684
479918
480146
480377
480615
480847
481090
481331
481576
481821
482153
482291
482529
482760
482992
483236
483484
483736
483975
484215
484448
484682
484915
485148
485373
485626
485872
486121
486362
486588
486815
487044
487272
487508
487754
487997
488131
488468
488712
488939
489165
489389
489620
489857
490104
490246
490590
490826
491050
491283
491514
491742
491976
492218
492461
492700
492936
493167
493392
493616
493848
494092
494331
494575
494816
495051
495277
495508
495742
495972
496208
496449
496699
496944
497185
497412
497636
497863
498099
498337
498578
498822
499060
499302
499540
499770
499993
500220
500457
500697
500942
501186
501423
501653
501879
502113
502342
502577
502813
503056
503297
503537
503775
504002
504230
504453
504688
504932
505175
505410
505649
505886
506111
506339
506572
506800
507031
507272
507524
507761
507995
508221
508446
508671
508901
509140
509377
509616
509855
510096
510328
510554
510776
511003
511236
511473
511717
511960
512195
512422
512650
512881
513105
513338
513571
513811
514049
514293
514530
514754
514982
515203
515434
515675
515915
516148
516384
516621
516845
517076
517307
517533
517766
518007
518259
518504
518743
518970
519197
519427
519658
519897
520136
520378
520615
520859
521096
521323
521543
521771
522007
522245
522488
522740
522978
523208
523439
523677
523906
524140
524384
524631
524872
525121
525366
525596
525828
525954
526303
526551
526800
527048
527290
527528
527766
528008
528242
528479
528727
528985
529235
529484
529721
529957
530191
530434
530681
530927
531179
531428
531680
531922
532161
532394
532631
532872
533127
533385
533635
533880
534117
534359
534598
534838
535079
535329
535579
535833
536085
536320
536555
536790
537039
537287
537538
537787
538039
538279
538519
538761
538995
539230
539476
539737
539986
540234
540475
540709
540937
541175
541420
541663
541910
542160
542414
542654
542892
543124
543355
543593
543845
544101
544347
544594
544832
545073
545309
545549
545786
546031
546283
546540
546789
547025
547262
547494
547734
547978
548229
548474
548722
548966
549208
549447
549678
549917
550157
550412
550668
550921
551163
551401
551637
551876
552119
552365
552614
552862
553119
553368
553606
553837
554076
554315
554562
554821
555072
555319
555559
555805
556044
556281
556516
556761
557010
557265
557517
557756
557991
558222
558467
558709
558957
559204
559453
559699
559942
560181
560411
560647
560885
561135
561392
561644
561887
562123
562358
562595
562835
563075
563323
563571
563820
564071
564311
564538
564769
565009
565255
565507
565761
566016
566260
566507
566750
566989
567224
567471
567727
567985
568241
568490
568637
568963
569213
569460
569713
569967
570224
570476
570726
570973
571212
571447
571688
571950
572204
572459
572706
572950
573184
573426
573675
573917
574167
574426
574690
574939
575179
575419
575661
575904
576159
576420
576676
576927
577181
577428
577669
577905
578150
578405
578664
578923
579174
579423
579662
579790
580149
580401
580654
580909
581165
581419
581666
581907
582148
582389
582644
582910
583159
583407
583657
583898
584138
584381
584624
584873
585125
585390
585640
585880
586116
586357
586592
586840
587099
587352
587602
587851
588102
588338
588576
588816
589066
589314
589576
589834
590081
590318
590559
590808
591053
591302
591557
591814
592063
592314
592554
592790
593026
593278
593531
593781
594029
594277
594453
594596
594753
595012
595170
595476
595730
595987
596246
596494
596729
596962
597204
597444
597691
597944
598202
598448
598698
598945
599182
599414
599653
599900
600155
600408
600661
600908
601140
601380
601626
601868
602110
602361
602614
602865
603111
603348
603582
603814
604062
604316
604570
604817
605067
605307
605548
605789
606023
606263
606512
606770
607015
607273
607499
607737
607964
608207
608447
608685
608853
609204
609463
609672
609920
610147
610367
610615
610839
611115
611360
611602
611833
612070
612304
612540
612771
613015
613265
613511
613756
613993
614225
614454
614690
614938
615183
615427
615671
615916
616148
616378
616612
616842
617078
617319
617525
617821
618058
618271
618521
618730
618976
619127
619462
619710
619953
620205
620447
620682
620914
621152
621393
621646
621907
622157
622403
622643
622888
623126
623366
623612
623865
624118
624377
624631
624868
625105
625345
625594
625843
626101
626354
626606
626852
627097
627341
627580
627823
628076
628343
628600
628853
629096
629340
629574
629823
630073
630329
630576
630837
631096
631337
631571
631812
632058
632312
632574
632834
633088
633332
633588
633831
634073
634315
634569
634830
635090
635349
635595
635836
636078
636331
636584
636843
637102
637361
637610
637859
638107
638349
638591
638850
639116
639373
639624
639871
640115
640357
640604
640854
641110
641368
641633
641887
642135
642375
642616
642861
643120
643387
643642
643898
644149
644401
644647
644893
645143
645404
645666
645933
646191
646443
646685
646934
647190
647448
647704
647967
648224
648480
648731
648976
649219
649470
649737
