281
572
891
1213
1528
1827
2124
2421
2727
3041
3354
3669
3975
4273
4566
4872
5177
5493
5804
6116
6414
6719
7019
7318
7638
7951
8261
8557
8852
9143
9463
9787
10093
10403
10696
10996
11296
11614
11916
12235
12546
12843
13137
13433
13747
14069
14383
14691
14994
15289
15578
15888
16207
16516
16842
17125
17425
17729
18041
18362
18664
18971
19279
19573
19880
20168
20501
20816
21122
21421
21723
22018
22329
22648
22952
23262
23579
23874
24170
24472
24781
25105
25421
25716
26004
26321
26627
26935
27253
27551
27860
28157
28456
28755
29078
29392
29703
30009
30301
30601
30908
31222
31535
31855
32097
32410
32699
33008
33322
33648
33958
34256
34553
34857
35162
35469
35786
36094
36404
36699
36993
37295
37615
37936
38246
38552
38842
39140
39440
39752
40070
40396
40697
40989
41282
41583
41903
42222
42531
42835
43136
43434
43729
44040
44357
44671
44977
45276
45573
45881
46200
46508
46810
47114
47417
47717
48017
48318
48645
48960
49259
49561
49862
50154
50470
50789
51100
51418
51706
52006
52295
52609
52925
53258
53557
53845
54153
54448
54763
55072
55386
55699
55995
56291
56588
56896
57224
57533
57840
58150
58439
58736
59051
59355
59684
59994
60282
60585
60877
61184
61511
61818
62130
62433
62733
63037
63330
63646
63958
64272
64579
64872
65161
65483
65803
66118
66425
66724
67021
67324
67631
67938
68258
68570
68870
69163
69465
69773
70093
70407
70713
71014
71316
71614
71911
72222
72540
72856
73161
73454
73751
74061
74377
74691
75006
75304
75599
75889
76196
76510
76835
77144
77451
77740
78032
78347
78654
78962
79281
79593
79883
80173
80476
80792
81111
81423
81736
82031
82330
82631
82942
83250
83563
83879
84171
84475
84767
85087
85414
85710
86015
86321
86616
86914
87233
87532
87867
88156
88453
88750
89060
89368
89685
90011
90303
90606
90904
91198
91514
91821
92144
92459
92757
93038
93348
93595
93937
94246
94553
94856
95152
95452
95747
96063
96390
96702
96998
97296
97593
97892
98217
98531
98840
99148
99433
99736
100040
100352
100676
100984
101286
101579
101889
102192
102498
102811
103128
103431
103730
104027
104322
104649
104971
105277
105575
105873
106170
106486
106798
107106
107415
107726
108020
108314
108624
108933
109251
109567
109871
110165
110460
110769
111083
111398
111709
112013
112308
112607
112907
113235
113551
113854
114163
114454
114753
115058
115366
115683
116008
116308
116604
116896
117198
117518
117831
118143
118448
118751
119046
119344
119656
119966
120287
120598
120899
121188
121492
121810
122123
122439
122741
123036
123339
123638
123946
124269
124581
124885
125182
125479
125781
126096
126410
126721
127033
127330
127623
127917
128230
128551
128873
129174
129467
129770
130072
130384
130697
131009
131318
131622
131915
132207
132518
132836
133154
133459
133764
134060
134364
134655
134975
135298
135611
135907
136194
136500
136803
137130
137448
137749
138043
138348
138652
138943
139262
139583
139882
140182
140480
140781
141095
141409
141726
142037
142335
142632
142934
143242
143544
143866
144180
144482
144767
145067
145377
145698
146015
146313
146619
146926
147219
147516
147829
148149
148471
148769
149062
149367
149677
149993
150300
150610
150910
151215
151506
151807
152128
152459
152768
153058
153365
153653
153962
154274
154587
154900
155211
155501
155790
156102
156410
156732
157045
157357
157644
157943
158247
158552
158867
159183
159485
159793
160091
160387
160706
161027
161336
161643
161931
162233
162540
162851
163158
163488
163791
164086
164379
164680
164993
165313
165630
165930
166230
166522
166823
167124
167445
167755
168071
168372
168662
168970
169279
169595
169911
170209
170515
170815
171108
171407
171743
172058
172367
172662
172959
173261
173576
173885
174196
174510
174810
175105
175401
175711
176022
176347
176656
176944
177241
177552
177855
178168
178487
178794
179093
179391
179688
180001
180319
180636
180943
181236
181532
181838
182100
182430
182748
183058
183362
183653
183941
184254
184574
184891
185200
185502
185801
186103
186399
186713
187034
187339
187654
187946
188239
188548
188871
189189
189495
189792
190094
190395
190693
190998
191325
191643
191940
192237
192536
192839
193154
193467
193781
194083
194385
194688
194981
195291
195611
195928
196225
196516
196817
197140
197450
197754
198074
198374
198670
198967
199268
199582
199908
200218
200524
200820
201111
201419
201731
202046
202359
202668
202969
203256
203556
203859
204186
204496
204806
205097
205409
205706
206015
206331
206638
206951
207253
207542
207834
208156
208482
208784
209095
209391
209692
209992
210303
210610
210940
211252
211542
211836
212131
212449
212771
213076
213303
213632
213934
214224
214522
214846
215165
215480
215772
216068
216374
216679
216990
217305
217619
217917
218213
218508
218817
219131
219448
219768
220067
220357
220650
220966
221282
221518
221847
222151
222450
222741
223042
223349
223675
223991
224298
224591
224892
225198
225505
225821
226135
226442
226729
227029
227332
227650
227971
228282
228580
228881
229177
229486
229798
230111
230420
230735
231035
231327
231624
231941
232262
232575
232875
233179
233480
233781
234082
234400
234715
235022
235315
235615
235915
236234
236550
236860
237168
237463
237760
238061
238373
238682
239006
239316
239614
239910
240197
240515
240837
241148
241450
241759
242054
242353
242658
242970
243295
243607
243905
244192
244500
244811
245121
245435
245738
246041
246343
246640
246936
247268
247583
247892
248185
248475
248783
249092
249408
249712
250032
250335
250632
250922
251220
251550
251869
252174
252472
252770
253074
253384
253688
254000
254318
254621
254917
255205
255517
255838
256159
256464
256767
257063
257361
257669
257969
258291
258611
258914
259212
259506
259813
260139
260451
260761
261061
261362
261663
261951
262270
262581
262904
263196
263496
263795
264100
264416
264731
265041
265345
265641
265941
266248
266553
266875
267191
267494
267795
268087
268387
268713
269030
269334
269637
269942
270237
270537
270841
271163
271486
271787
272288
272593
272903
273216
273533
273840
274142
274431
274726
275034
275357
275680
275986
276287
276579
276886
277191
277508
277820
278136
278435
278731
279026
279325
279650
279971
280280
280576
280877
281182
281481
281792
282103
282418
282671
282952
283247
283555
283870
284179
284497
284799
285098
285398
285698
286003
286327
286642
286944
287237
287528
287838
288133
288430
288736
289039
289349
289644
289937
290250
290568
290885
291190
291486
291786
292086
292404
292718
293034
293335
293631
293925
294226
294533
294864
295177
295474
295776
296073
296301
296599
296914
297220
297533
297838
298129
298429
298734
299047
299371
299687
299981
300284
300580
300884
301198
301514
301825
302129
302418
302716
303026
303349
303662
303968
304278
304500
304783
305093
305397
305709
306033
306336
306633
306929
307229
307541
307869
308185
308481
308781
309077
309381
309686
310005
310321
310633
310928
311223
311533
311840
312156
312471
312778
313077
313370
313670
313975
314303
314622
314919
315216
315516
315823
316138
316442
316755
317070
317292
317576
317872
318173
318481
318803
319123
319424
319722
320027
320329
320641
320957
321267
321564
321853
322155
322461
322783
323101
323407
323710
323995
324301
324615
324927
325229
325550
325852
326148
326375
326658
326976
327297
327608
327912
328216
328513
328813
329115
329432
329753
330065
330353
330646
330954
331266
331548
331841
332150
332447
332743
333039
333343
333666
333984
334289
334590
334882
335109
335402
335722
336040
336345
336650
336949
337246
337545
337857
338176
338495
338800
339087
339389
339698
340009
340324
340640
340940
341236
341539
341832
342151
342472
342779
343089
343386
343686
343991
344291
344604
344918
345237
345536
345818
346123
346431
346763
347069
347382
347669
347985
348286
348598
348912
349215
349528
349826
350066
350355
350674
350993
351301
351611
351910
352209
352513
352813
353125
353445
353759
354053
354346
354641
354950
355279
355599
355902
356201
356434
356726
357029
357346
357662
357977
358272
358559
358864
359181
359499
359801
360109
360414
360708
361006
361310
361612
361947
362263
362474
362757
363055
363281
363615
363933
364231
364547
364854
365143
365443
365750
366064
366393
366704
366994
367287
367598
367831
368115
368445
368754
369059
369346
369643
369947
370276
370588
370889
371204
371496
371794
372097
372399
372722
373046
373342
373637
373931
374235
374558
374874
375187
375491
375792
376092
376387
376691
377008
377329
377642
377873
378151
378451
378767
379090
379398
379709
380001
380306
380599
380910
381222
381540
381852
382145
382448
382743
383052
383373
383618
383910
384220
384514
384807
385108
385422
385745
386056
386359
386654
386962
387267
387574
387893
388207
388511
388804
389101
389402
389724
389973
390273
390568
390873
391172
391476
391781
392095
392413
392724
393018
393304
393614
393923
394247
394556
394860
395166
395467
395768
396070
396384
396697
397008
397303
397592
397902
398219
398542
398783
399078
399368
399665
399971
400275
400578
400906
401222
401514
401811
402103
402412
402736
403051
403355
403668
403961
404256
404563
404866
405137
405435
405736
406029
406335
406628
406943
407265
407573
407884
408175
408478
408775
408989
409301
409617
409909
410221
410509
410814
411120
411432
411753
411997
412282
412571
412866
413172
413486
413813
414120
414422
414721
415023
415324
415629
415953
416186
416479
416778
417067
417370
417689
418011
418310
418624
418916
419149
419437
419745
420055
420369
420679
420977
421276
421576
421886
422144
422443
422752
423055
423356
423651
423955
424268
424584
424897
425200
425498
425715
426015
426327
426644
426956
427263
427561
427860
428162
428466
428791
429105
429409
429702
430000
430303
430621
430927
431245
431479
431800
432091
432379
432688
433008
433330
433638
433935
434238
434459
434788
435105
435420
435730
436035
436329
436624
436924
437251
437565
437875
438171
438468
438774
439077
439380
439701
440018
440323
440611
440915
441214
441520
441850
442162
442465
442765
443064
443365
443673
443994
444309
444613
444898
445202
445510
445824
446136
446452
446751
447052
447350
447646
447967
448278
448598
448904
449195
449491
449789
450101
450418
450732
451053
451345
451633
451938
452244
452567
452881
453188
453488
453782
454093
454403
454713
454965
455291
455597
455889
456182
456491
456815
457132
457433
457734
458038
458336
458636
458956
459275
459586
459884
460174
460476
460780
461102
461417
461724
462026
462329
462630
462934
463247
463566
463877
464175
464465
464765
465081
465397
465710
466022
466321
466625
466920
467223
467537
467864
468175
468463
468762
469051
469365
469682
469994
470310
470620
470907
471200
471508
471823
472145
472457
472757
473046
473358
473659
473964
474284
474602
474910
475201
475492
475795
476121
476435
476739
477038
477339
477643
477938
478264
478575
478892
479198
479482
479778
480090
480402
480710
481024
481332
481640
481926
482231
482552
482860
483182
483490
483779
484076
484384
484689
485004
485318
485629
485919
486222
486525
486830
487162
487468
487771
488068
488356
488668
488975
489289
489603
489912
490216
490504
490805
491118
491437
491758
492059
492353
492656
492956
493269
493581
493898
494209
494511
494808
495100
495414
495735
496047
496350
496649
496945
497251
497558
497781
498089
498410
498702
498994
499295
499598
499912
500234
500544
500842
501144
501444
501747
502064
502379
502691
502999
503227
503512
503822
504135
504453
504762
505069
505366
505668
505970
506242
506564
506880
507183
507476
507771
508074
508389
508702
509015
509225
509529
509829
510123
510414
510732
511006
511303
511602
511840
512129
512432
512735
512968
513270
513576
513881
514091
514376
514624
514927
515243
515561
515864
516149
516453
516757
517070
517386
517703
518011
518307
518603
518898
519212
519535
519842
520151
520454
520751
521043
521354
521678
521994
522300
522602
522881
523185
523494
523818
524133
524433
524728
525039
525340
525646
525970
526285
526592
526885
527181
527482
527794
528101
528417
528724
529031
529331
529623
529940
530252
530568
530882
531174
531471
531769
532079
532398
532710
533024
533328
533622
533920
534225
534558
534868
535166
535462
535755
536060
536369
536688
537004
537318
537619
537912
538209
538514
538836
539155
539460
539755
540058
540354
540657
540879
541185
541502
541813
542105
542393
542701
542964
543294
543604
543909
544204
544505
544807
545111
545431
545757
546065
546357
546649
546952
547265
547580
547888
548194
548499
548799
549098
549409
549728
550045
550352
550644
550938
551247
551557
551870
552181
552486
552792
553093
553387
553696
554023
554238
554527
554826
555121
555417
555724
556038
556349
556671
556974
557266
557562
557870
558187
558460
558750
559052
559353
559652
559948
560257
560508
560839
561153
561449
561739
562040
562354
562672
562983
563289
563587
563891
564189
564491
564811
565134
565443
565741
566035
566331
566644
566959
567183
567481
567790
568084
568375
568682
568915
569219
569540
569844
570134
570432
570645
570941
571256
571572
571878
572180
572410
572693
572991
573317
573635
573946
574243
574533
574833
575144
575456
575767
576086
576385
576683
576981
577288
577602
577921
578230
578530
578829
579130
579433
579742
580065
580380
580691
580984
581274
581583
581903
582217
582525
582831
583125
583429
583729
584035
584358
584675
584981
585275
585571
585873
586190
586500
586809
587120
587424
587718
588013
588328
588646
588965
589270
589561
589858
590168
590479
590792
591105
591409
591711
592008
592303
592623
592941
593251
593556
593857
594151
594455
594762
595070
595390
595703
595999
596291
596592
596901
597228
597540
597844
598142
598441
598738
599045
599360
599677
599991
600287
600580
600881
601200
601520
601829
602137
602430
602732
603030
603331
603652
603974
604280
604577
604877
605173
605486
605800
606110
606421
606727
607020
607313
607619
607934
608257
608569
608869
609166
609473
609777
610090
610406
610712
611015
611312
611605
611910
612239
612553
612857
613159
613452
613755
614062
614375
614687
615005
615301
615596
615897
616202
616523
616843
617152
617451
617750
618047
618352
618662
618886
619184
619492
619786
620082
620383
620705
621025
621329
621640
621937
622234
622534
622838
623061
623374
623681
623974
624273
624569
624878
625198
625423
625716
626023
626319
626616
626916
627231
627550
627770
628063
628361
628658
628966
629275
629587
629902
630207
630509
630804
631100
631407
631734
632053
632354
632596
632878
633182
633488
633800
634112
634432
634731
635023
635322
635625
635946
636182
636486
636788
637088
637381
637680
637991
638307
638623
638935
639230
639518
639824
640140
640457
640767
641075
641374
641672
641970
642274
642598
642913
643217
643512
643809
644113
644431
644746
645050
645363
645663
645952
646164
646450
646764
647088
647398
647620
647905
648211
648517
648825
649139
649452
649758
