88
442
789
1153
1492
1825
2158
2522
2890
3239
3592
3924
4105
4601
4972
5351
5715
6114
6479
6888
7284
7686
8055
8432
8803
9197
9587
10087
10275
10696
10876
11452
11817
12173
12508
12854
13236
13641
14072
14466
14845
15220
15621
16020
16403
16787
17161
17535
17933
18325
18678
19037
19412
19802
20193
20576
20936
21301
21678
22054
22428
22795
23188
23608
24037
24451
24848
25231
25615
25989
26385
26787
27181
27542
27924
28312
28716
29100
29454
29793
30150
30546
30974
31421
31853
32263
32700
33120
33514
33891
34261
34625
35018
35412
35765
36114
36472
36850
37296
37781
38195
38588
38992
39388
39780
40168
40537
40915
41307
41700
42088
42462
42836
43214
43610
44004
44386
44774
45141
45515
45894
46291
46651
46989
47343
47719
47991
48181
48381
48629
48996
49381
49772
50167
50537
50908
51263
51629
52004
52387
52767
53148
53504
53865
54246
54651
55027
55400
55771
56161
56550
56955
57331
57716
58081
58469
58870
59277
59651
60001
60371
60790
61182
61583
61954
62323
62699
63095
63492
63872
64248
64614
64996
65394
65790
66160
66541
66913
67296
67685
68076
68450
68800
69172
69527
69907
70277
70726
71160
71627
72058
72457
72840
73220
73590
74005
74393
74767
75134
75513
75891
76308
76700
77060
77433
77817
78199
78591
78979
79340
79712
80098
80480
80860
81217
81556
81902
82278
82676
83133
83545
83822
84347
84796
85210
85585
85965
86322
86703
87080
87468
87838
88218
88603
88990
89401
89805
90192
90558
90959
91351
91743
92114
92485
92858
93251
93628
94008
94367
94720
95061
95437
95862
96332
96751
97142
97546
97967
98352
98703
99065
99443
99823
100210
100579
100942
101307
101668
102036
102399
102774
103216
103622
104041
104457
104839
105226
105598
105982
106380
106796
107174
107324
107593
107946
108338
108736
109143
109531
109888
110301
110710
111099
111497
111861
112246
112652
113046
113434
113820
114197
114571
114990
115378
115768
116141
116521
116894
117314
117710
118096
118475
118869
119261
119676
120054
120425
120815
121217
121615
122008
122391
122740
123108
123488
123888
124265
124637
124998
125378
125766
126167
126542
126926
127306
127683
128085
128495
128862
129242
129625
130018
130418
130808
131186
131556
131949
132342
132734
133098
133456
133793
134160
134540
134926
135406
135845
136256
136658
137074
137448
137828
138215
138600
139014
139401
139773
140147
140540
140938
141330
141719
142092
142470
142884
143288
143690
144080
144463
144846
145268
145671
146061
146456
146842
147250
147664
148070
148449
148842
149237
149641
150057
150446
150825
151218
151613
152017
152406
152785
153143
153535
153921
154305
154672
155044
155415
155799
156201
156584
156944
157319
157702
158080
158475
158844
159201
159559
159958
160436
160891
161291
161682
162065
162462
162836
163225
163576
163936
164327
164721
165111
165493
165868
166246
166626
167028
167420
167775
168144
168518
168903
169301
169680
170043
170419
170795
171185
171576
171950
172320
172678
173068
173446
173821
174183
174533
174869
175252
175677
176128
176524
176907
177281
177680
178071
178432
178783
179150
179494
179838
180038
180618
181020
181397
181784
182153
182550
182913
183267
183643
184034
184412
184791
185161
185502
185867
186353
186801
187207
187597
187973
188364
188772
189142
189497
189872
190235
190620
191003
191358
191696
192055
192427
192877
193340
193546
194129
194552
194944
195316
195695
196069
196429
196789
197181
197550
197906
198372
198826
199242
199660
200044
200415
200793
201187
201574
201971
202342
202703
203073
203462
203832
204211
204605
205060
205493
205730
206303
206699
207064
207430
207809
208204
208569
208926
209291
209645
210015
210458
210883
211262
211637
212009
212402
212807
213185
213543
213940
214327
214705
215091
215466
215831
216213
216618
216988
217351
217724
218068
218439
218902
219381
219802
220203
220593
220986
221198
221733
222082
222442
222801
223210
223660
224046
224434
224818
225225
225607
225996
226366
226739
227128
227527
227896
228269
228631
229002
229375
229754
230128
230476
230942
231363
231781
232175
232583
232963
233369
233743
234134
234509
234862
235225
235588
235996
236376
236748
237124
237481
237834
238297
238795
239201
239635
240019
240444
240851
241219
241584
241985
242384
242786
243160
243516
243877
244252
244653
245035
245422
245778
246150
246540
246946
247338
247728
248112
248500
248906
249307
249682
250048
250432
250818
251215
251599
251965
252316
252673
253023
253418
253872
254256
254621
255022
255415
255799
256158
256501
256835
257182
257614
257952
258296
258624
259086
259489
259920
260299
260667
261018
261380
261741
262113
262469
262954
263187
263666
264183
264550
264948
265309
265675
266077
266471
266844
267206
267552
267928
268508
268705
268972
269363
269778
270170
270570
270984
271367
271745
272124
272517
272901
273273
273627
273983
274446
274888
275297
275681
276047
276417
276812
277189
277560
277902
278286
278652
279044
279427
279789
280138
280494
280940
281412
281861
282247
282629
283025
283431
283827
284217
284587
284949
285347
285736
286123
286491
286857
287222
287609
287991
288343
288738
289161
289564
289944
290324
290673
291019
291374
291725
292103
292480
292842
293193
293556
293928
294293
294666
295032
295381
295735
296118
296507
296896
297258
297624
297976
298351
298737
299159
299586
299988
300375
300777
301183
301551
301891
302301
302711
303112
303508
303882
304249
304630
305009
305369
305747
306117
306673
306959
307377
307774
308176
308544
308926
309321
309709
310074
310440
310802
311159
311529
311983
312181
312426
312841
313241
313636
314040
314431
314806
315186
315593
315985
316373
316763
317126
317519
317919
318312
318692
319084
319455
319851
320266
320652
321033
321400
321779
322165
322567
322943
323314
323684
324065
324458
324863
325245
325608
325993
326381
326581
327151
327534
327890
328257
328637
329024
329392
329746
330107
330479
330991
331453
331858
332257
332633
333030
333431
333822
334181
334571
334946
335720
336087
336430
336774
337151
337624
338064
338482
338885
339286
339700
340094
340474
340845
341228
341605
342009
342376
342749
343106
343484
343866
344246
344636
345174
345620
346047
346445
346847
347211
347580
347972
348362
348746
349125
349486
349850
350236
350631
351005
351394
351760
352134
352529
352918
353290
353655
354035
354421
354817
355226
355599
355972
356359
356756
357146
357520
357895
358284
358680
359083
359495
359871
360257
360657
361047
361448
361848
362231
362623
362995
363405
363803
364182
364550
364928
365309
365695
366088
366452
366807
367171
367551
367908
368287
368643
369002
369465
369908
370297
370669
371047
371419
371810
372215
372608
372969
373343
373707
374092
374475
374843
375195
375545
375928
376347
376728
377097
377436
377783
378136
378486
378660
378841
379178
379519
379852
380185
380542
380888
381224
381551
381878
382200
382541
382901
383248
383588
383923
384264
384606
384957
385311
385639
385962
386280
386620
386954
387293
387632
387950
388252
388570
388898
389220
389541
389871
390189
390504
390833
391184
391540
391881
392217
392541
392845
393053
393508
393836
394145
394441
394752
395053
395355
395674
395992
396315
396617
396918
397234
397561
397900
398247
398590
398918
399232
399569
399912
400234
400586
400934
401254
401607
401970
402336
402678
403021
403357
403702
404051
404422
404785
405113
405438
405773
406107
406560
406929
407290
407631
408126
408536
408911
409285
409618
409944
410287
410678
411048
411493
411833
412192
412549
412945
413514
413945
414361
414747
415139
415523
415872
416231
416666
417010
417398
417602
417845
418188
418567
418955
419345
419751
420135
420504
420847
421239
421658
422146
422514
422911
423305
423715
424105
424495
424849
425234
425615
426010
426450
427053
427416
427828
428240
428649
429028
429398
429769
430176
430551
430955
431494
431966
432409
432804
433182
433562
433925
434301
434688
435081
435657
436057
436472
436877
437285
437654
438020
438747
439128
439543
439985
440422
440851
441251
441642
442024
442394
442747
443129
443506
443862
444223
444592
444950
445355
445741
446117
446477
446827
447188
447581
448051
448392
448735
449115
449476
449849
450216
450566
450903
451252
451611
451959
452312
452650
452976
453315
453655
454015
454364
454700
455038
455367
455705
456051
456410
456750
457069
457257
457740
458085
458441
458795
459124
459449
459788
460133
460496
460844
461213
461543
461888
462238
462589
462926
463274
463611
463928
464256
464608
464962
465299
465639
465984
466308
466644
467000
467336
467655
467974
468292
468618
468948
469304
469640
469979
470311
470642
470983
471318
471656
471985
472293
472600
472911
473246
473567
473878
474207
474525
474836
475161
475499
475838
476163
476483
476803
477110
477435
477780
478132
478465
478783
479126
479446
479785
480148
480493
480835
481152
481506
481840
482181
482537
482872
483188
483511
483852
484186
484525
484856
485182
485506
485828
486175
486522
486859
487183
487516
487850
488180
488532
488883
489212
489564
489912
490260
490594
490795
491328
491649
491966
492291
492616
492945
493285
493598
493900
494197
494512
494850
495187
495522
495857
496167
496478
496794
497139
497480
497810
498139
498459
498780
499109
499443
499785
500106
500412
500736
501053
501393
501740
502081
502414
502727
503078
503425
503765
504127
504475
504802
505123
505490
505836
506174
506536
506863
507191
507551
507923
508267
508616
508958
509291
509620
509800
510323
510677
510993
511323
511662
511990
512352
512714
513045
513394
513716
514097
514462
514823
515188
515524
515873
516206
516592
516962
517311
517653
518022
518354
518736
519086
519426
519764
520128
520446
520788
521183
521518
521877
522231
522565
522968
523356
523717
524100
524460
524804
525169
525518
525899
526231
526411
526940
527314
527652
528028
528248
528755
528957
529378
529760
530102
530469
530821
531145
531519
531897
532242
532609
532962
533330
533698
534072
534430
534808
535164
535501
535879
536233
536590
536962
537282
537649
538020
538369
538754
539112
539444
539792
540134
540498
540878
541219
541560
541916
542276
542624
542989
543363
543699
544087
544453
544834
545211
545553
545916
546268
546669
547018
547407
547750
548111
548449
548874
549274
549656
550031
550400
550740
551159
551538
551890
552291
552624
553096
553566
553968
554331
554704
555076
555455
555854
556210
556564
556997
557459
557883
558291
558671
559051
559401
559834
560237
560626
560995
561364
561728
562159
562560
562949
563318
563694
564072
564457
564848
565212
565574
565940
566307
566663
567026
567375
567741
568099
568535
568967
569327
569712
570082
570437
570822
571173
571508
571903
572236
572650
573025
573359
573720
574056
574395
574769
575172
575515
575898
576267
576611
577021
577382
577779
578104
578474
578838
579183
579578
579925
580278
580619
580793
581297
581641
581965
582328
582655
582984
583326
583730
584064
584398
584775
585093
585437
585839
586213
586539
586924
587286
587619
588018
588373
588739
589049
589417
589749
590131
590480
590824
591174
591495
591837
592222
592563
592938
593269
593623
593983
594330
594714
595060
595382
595729
596074
596437
596795
597152
597482
597824
598169
598539
598898
599292
599644
599955
600353
600744
601102
601478
601814
602172
602530
602903
603276
603622
603964
604262
604661
605017
605384
605737
606073
606413
606743
607095
607442
607792
608115
608418
608744
609068
609398
609723
610060
610366
610671
610995
611310
611637
611966
612274
612581
612873
613182
613493
613803
614112
614408
614700
615016
615305
615613
615903
616226
616575
616885
617209
617520
617831
618165
618478
618778
619056
619236
620221
620532
620810
621103
621390
621653
621962
622252
622546
622850
623162
623443
623730
624023
624324
624631
624925
625230
625515
625809
626100
626389
626588
627032
627276
627618
627907
628175
628473
628778
629089
629399
629696
630003
630296
630598
630885
631201
631422
631837
632110
632418
632709
633023
633333
633642
633951
634245
634532
634831
635138
635448
635762
636082
636390
636690
636985
637310
637631
637948
638259
638561
638873
639178
639489
639831
640153
640454
640756
641057
641392
641724
642082
642436
642761
643079
643407
643735
644062
644404
644724
645018
645296
645615
645949
646263
646587
646911
647225
647531
647857
648191
648524
648833
649157
649460
649760
