112
344
571
809
1050
1288
1524
1766
1996
2221
2436
2663
2884
3116
3352
3588
3814
4041
4264
4481
4691
4909
5127
5358
5593
5820
6047
6254
6481
6696
6917
7134
7356
7584
7824
8067
8291
8511
8736
8970
9196
9423
9660
9901
10147
10390
10619
10844
11074
11307
11549
11783
12029
12276
12522
12765
12997
13227
13463
13715
13928
14211
14462
14713
14957
15200
15435
15668
15918
16181
16436
16684
16935
17177
17423
17661
17901
18153
18421
18679
18928
19174
19414
19658
19905
20151
20400
20668
20927
21179
21425
21666
21909
22159
22406
22660
22922
23187
23438
23674
23917
24157
24407
24662
24920
25179
25448
25698
25936
26176
26422
26678
26938
27199
27453
27654
27964
28203
28451
28697
28958
29229
29489
29742
30003
30253
30497
30741
30994
31259
31531
31790
32040
32294
32548
32798
33041
33243
33560
33825
34087
34334
34579
34836
35084
35331
35591
35852
36118
36377
36625
36873
37130
37382
37638
37901
38164
38430
38689
38935
39176
39432
39690
39950
40209
40469
40727
40983
41227
41466
41719
41985
42247
42501
42760
43010
43262
43509
43756
44007
44282
44544
44797
45051
45299
45547
45779
46044
46290
46555
46819
47076
47315
47557
47795
48043
48289
48546
48805
49073
49328
49566
49808
50048
50300
50555
50809
51061
51329
51580
51819
52056
52299
52549
52812
53067
53318
53577
53831
54072
54306
54549
54792
55048
55306
55560
55804
56056
56295
56531
56772
57020
57282
57548
57802
58047
58297
58545
58790
59034
59291
59559
59828
60081
60325
60577
60829
61077
61331
61595
61857
62123
62374
62616
62862
63117
63368
63618
63877
64130
64388
64635
64873
65106
65356
65609
65861
66111
66368
66625
66875
67117
67355
67607
67870
68132
68388
68645
68895
69144
69384
69628
69880
70148
70408
70661
70916
71159
71405
71655
71901
72148
72417
72680
72936
73184
73430
73675
73929
74179
74431
74696
74969
75224
75465
75711
75952
76205
76461
76724
76984
77256
77510
77752
77997
78246
78505
78770
79030
79286
79548
79800
80048
80288
80537
80796
81064
81322
81576
81834
82087
82333
82573
82827
83085
83354
83614
83866
84117
84377
84621
84811
85114
85366
85636
85895
86142
86379
86627
86867
87104
87344
87591
87841
88085
88320
88550
88776
89020
89254
89490
89733
89979
90229
90478
90706
90935
91174
91423
91672
91919
92173
92424
92675
92919
93158
93404
93670
93932
94189
94454
94712
94968
95220
95472
95724
96002
96274
96538
96803
97059
97316
97572
97827
98088
98371
98643
98900
99155
99404
99662
99915
100174
100439
100720
100981
101233
101482
101725
101977
102235
102492
102751
103023
103282
103530
103779
104026
104280
104536
104816
105076
105345
105605
105852
106096
106349
106605
106872
107137
107395
107656
107919
108169
108411
108668
108932
109203
109470
109732
109989
110247
110497
110743
111001
111263
111535
111801
112056
112306
112569
112820
113074
113339
113604
113880
114144
114394
114639
114903
115159
115413
115682
115946
116213
116476
116726
116969
117237
117498
117758
118024
118288
118547
118797
119037
119276
119532
119790
120043
120291
120538
120781
121016
121244
121471
121702
121956
122197
122432
122663
122892
123120
123356
123576
123801
124037
124289
124527
124757
124992
125221
125452
125687
125917
126152
126397
126650
126892
127121
127352
127580
127815
128056
128295
128538
128793
129047
129293
129523
129758
129993
130238
130487
130741
130993
131256
131505
131742
131979
132220
132474
132740
132995
133248
133514
133771
134016
134257
134507
134763
135033
135295
135552
135812
136070
136318
136560
136815
137074
137345
137609
137866
138112
138372
138618
138860
139112
139373
139642
139911
140165
140406
140657
140908
141161
141413
141676
141941
142202
142448
142688
142935
143188
143441
143696
143956
144209
144466
144711
144952
145194
145455
145711
145969
146230
146486
146740
146994
147240
147482
147751
148020
148280
148535
148790
149043
149296
149539
149785
150052
150323
150585
150834
151087
151334
151587
151833
152084
152352
152622
152880
153071
153376
153618
153873
154123
154319
154644
154912
155173
155415
155657
155895
156144
156399
156653
156903
157167
157414
157650
157888
158131
158380
158644
158907
159161
159425
159677
159920
160162
160410
160667
160937
161195
161452
161714
161966
162212
162455
162709
162969
163240
163500
163751
164008
164265
164513
164759
165019
165281
165552
165814
166065
166317
166575
166824
167071
167332
167596
167866
168127
168378
168625
168888
169144
169400
169669
169933
170203
170460
170712
170961
171224
171481
171742
172005
172266
172530
172787
173033
173275
173537
173798
174059
174316
174574
174823
175072
175311
175553
175811
176059
176338
176588
176845
177087
177335
177581
177829
178083
178356
178614
178860
179103
179345
179590
179840
180086
180335
180600
180867
181122
181360
181608
181856
182113
182369
182628
182902
183173
183430
183624
183928
184182
184457
184722
184986
185261
185527
185777
186026
186279
186538
186811
187077
187338
187605
187863
188111
188358
188614
188883
189161
189425
189682
189941
190194
190400
190690
190948
191225
191496
191757
192008
192269
192517
192764
193016
193279
193549
193818
194068
194311
194565
194813
195060
195317
195582
195848
196114
196367
196607
196857
197112
197371
197624
197890
198153
198416
198664
198908
199164
199429
199695
199960
200230
200497
200758
201006
201257
201517
201786
202055
202319
202587
202845
203107
203358
203610
203876
204155
204427
204693
204956
205211
205473
205729
205984
206259
206541
206810
207068
207327
207582
207842
208099
208362
208635
208911
209175
209422
209674
209923
210180
210439
210702
210970
211238
211495
211740
211987
212236
212501
212765
213027
213289
213560
213812
214055
214306
214558
214831
215101
215363
215627
215896
216146
216394
216588
216909
217180
217453
217715
217973
218234
218486
218732
218995
219262
219534
220053
220308
220572
220824
221077
221339
221608
221880
222139
222385
222638
222895
223151
223407
223674
223940
224211
224465
224709
224966
225225
225486
225748
226021
226288
226553
226803
227048
227307
227570
227836
228099
228367
228635
228893
229142
229389
229654
229924
230193
230453
230717
230978
231237
231484
231731
232003
232275
232538
232799
233054
233307
233564
233809
234056
234325
234597
234819
235113
235364
235616
235873
236129
236387
236657
236934
237202
237452
237703
237955
238215
238479
238744
239014
239290
239551
239797
240047
240299
240565
240832
241099
241368
241637
241890
242138
242392
242646
242920
243188
243454
243718
243984
244236
244484
244744
245006
245284
245496
245817
246076
246344
246599
246848
247113
247384
247660
247924
248177
248434
248694
248952
249203
249472
249741
250014
250273
250521
250781
251039
251300
251563
251833
252109
252381
252632
252874
253133
253393
253655
253917
254183
254448
254716
254967
255208
255469
255732
255996
256259
256524
256786
257042
257295
257543
257810
258078
258343
258609
258871
259132
259386
259635
259889
260163
260434
260697
260962
261214
261470
261725
261977
262232
262509
262778
263033
263290
263539
263793
264050
264306
264570
264852
265121
265374
265627
265876
266132
266391
266656
266923
267201
267464
267714
267964
268213
268475
268741
269009
269274
269548
269801
270046
270293
270541
270805
271080
271344
271600
271867
272120
272368
272610
272863
273124
273398
273661
273912
274170
274423
274673
274920
275179
275442
275709
275971
276223
276470
276724
276975
277224
277487
277753
278025
278287
278540
278791
279052
279311
279569
279839
280107
280380
280635
280883
281140
281402
281664
281928
282199
282463
282729
282980
283226
283487
283754
284020
284284
284555
284817
285075
285324
285568
285830
286101
286368
286629
286893
287151
287409
287657
287905
288175
288450
288717
288975
289232
289486
289746
289998
290248
290524
290793
291054
291316
291567
291820
292082
292339
292597
292875
293143
293401
293655
293904
294159
294418
294682
294945
295222
295488
295739
295988
296239
296497
296761
297025
297290
297569
297827
298074
298325
298578
298840
299110
299376
299641
299915
300165
300410
300661
300914
301178
301452
301718
301975
302237
302489
302736
302985
303247
303519
303795
304060
304312
304521
304826
305078
305335
305604
305879
306153
306415
306665
306925
307179
307438
307702
307974
308247
308519
308772
309019
309277
309534
309798
310067
310334
310602
310864
311115
311361
311618
311883
312148
312410
312677
312933
313191
313435
313682
313945
314216
314481
314741
315004
315263
315518
315767
316017
316288
316559
316827
317089
317346
317602
317863
318117
318375
318655
318924
319186
319447
319697
319952
320211
320468
320731
321012
321277
321529
321781
322030
322285
322543
322803
323067
323345
323606
323852
324099
324346
324605
324861
325124
325388
325661
325920
326166
326416
326663
326926
327193
327457
327718
327987
328239
328481
328727
328973
329238
329509
329768
330025
330236
330543
330781
331032
331286
331552
331821
332082
332331
332585
332833
333078
333323
333581
333848
334119
334377
334626
334875
335126
335377
335576
335892
336153
336425
336678
336923
337172
337428
337680
337936
338203
338465
338731
338982
339229
339481
339743
340003
340264
340535
340797
341059
341311
341560
341812
342082
342350
342613
342879
343139
343397
343650
343900
344155
344433
344704
344966
345228
345481
345741
345991
346243
346507
346790
347059
347318
347575
347824
348080
348331
348584
348853
349130
349396
349648
349901
350151
350408
350664
350927
351195
351470
351737
351986
352238
352489
352749
353013
353279
353549
353818
354076
354322
354574
354832
355099
355366
355628
355900
356159
356406
356653
356905
357162
357436
357704
357966
358238
358497
358747
359000
359261
359533
359812
360083
360342
360608
360864
361113
361366
361630
361907
362182
362446
362701
362966
363220
363472
363732
363998
364271
364540
364795
365044
365305
365554
365805
366070
366333
366601
366867
367121
367364
367621
367874
368131
368394
368661
368925
369187
369437
369684
369942
370207
370472
370735
370983
371265
371519
371770
372018
372279
372546
372813
373072
373337
373594
373848
374077
374342
374607
374882
375150
375408
375663
375911
376167
376418
376668
376937
377211
377479
377730
377983
378230
378484
378739
378997
379267
379543
379801
380050
380301
380551
380808
381069
381278
381609
381882
382144
382392
382641
382899
383165
383428
383691
383960
384224
384473
384719
384969
385227
385502
385767
386026
386291
386548
386794
387036
387289
387550
387822
388086
388342
388603
388857
389106
389354
389613
389883
390160
390425
390677
390936
391187
391440
391692
391918
392224
392498
392758
393002
393259
393512
393765
394021
394287
394504
394829
395078
395326
395584
395840
396093
396352
396620
396887
397152
397403
397648
397905
398167
398403
398695
398961
399229
399489
399737
399982
400239
400505
400775
401036
401300
401559
401818
402067
402315
402577
402850
403117
403376
403634
403883
404135
404385
404636
404901
405179
405442
405698
405952
406197
406451
406705
406963
407227
407506
407771
407957
408270
408516
408779
409039
409307
409572
409850
410114
410360
410610
410859
411122
411331
411655
411921
412197
412450
412696
412948
413198
413464
413732
413994
414259
414522
414771
415014
415263
415514
415782
416049
416311
416565
416827
417075
417318
417569
417827
418098
418364
418622
418873
419130
419378
419623
419874
420136
420353
420672
420928
421184
421443
421694
421945
422210
422473
422745
423005
423253
423502
423758
424013
424267
424535
424797
425066
425324
425571
425818
426079
426341
426599
426866
427129
427392
427643
427889
428140
428406
428670
428931
429196
429456
429714
429960
430208
430459
430729
430992
431252
431514
431766
432017
432269
432517
432771
433047
433314
433571
433831
434082
434335
434594
434848
435103
435381
435651
435908
436159
436411
436665
436921
437181
437441
437714
437981
438235
438484
438735
438990
439254
439514
439778
440050
440313
440566
440815
441066
441325
441595
441861
442121
442390
442649
442894
443139
443391
443649
443920
444181
444438
444705
444960
445208
445455
445714
445982
446256
446518
446774
447035
447286
447534
447782
448044
448317
448591
448851
449100
449362
449614
449864
450120
450383
450654
450929
451182
451425
451683
451934
452186
452449
452717
452988
453256
453510
453755
454017
454275
454531
454797
455063
455332
455589
455837
456083
456344
456604
456866
457131
457391
457654
457908
458153
458399
458665
458929
459188
459453
459709
459965
460216
460464
460712
460985
461253
461511
461774
462027
462279
462531
462783
463033
463305
463573
463831
464085
464334
464587
464842
465094
465347
465618
465887
466146
466392
466637
466888
467144
467394
467650
467918
468189
468443
468686
468936
469184
469441
469703
469965
470235
470507
470758
471001
471255
471507
471771
472038
472302
472566
472837
473089
473331
473583
473840
474079
474380
474642
474901
475166
475418
475659
475913
476173
476447
476712
476969
477223
477482
477731
477976
478233
478494
478766
479031
479283
479531
479791
480044
480294
480557
480822
481090
481352
481603
481848
482106
482360
482614
482880
483142
483410
483661
483910
484158
484418
484674
484931
485196
485458
485720
485966
486209
486460
486722
486981
487237
487503
487760
488017
488266
488510
488760
489031
489296
489554
489815
490072
490326
490573
490820
491071
491349
491616
491872
492129
492381
492637
492884
493132
493389
493667
493931
494185
494437
494680
494934
495187
495439
495700
495975
496238
496491
496740
496986
497239
497501
497762
498020
498293
498555
498807
499050
499298
499552
499821
500086
500344
500613
500875
501125
501364
501615
501874
502138
502400
502660
502923
503176
503422
503664
503918
504177
504447
504710
504970
505230
505489
505736
505982
506241
506504
506777
507043
507296
507548
507812
508064
508309
508575
508839
509110
509373
509622
509873
510132
510388
510641
510907
511149
511442
511696
511949
512201
512461
512721
512983
513250
513515
513779
514028
514272
514525
514786
515046
515307
515574
515832
516092
516338
516580
516835
517102
517365
517622
517886
518143
518395
518641
518883
519140
519409
519676
519931
520192
520443
520697
520943
521191
521452
521726
521994
522253
522508
522755
523010
523261
523511
523776
524048
524267
524565
524816
525056
525307
525555
525805
526065
526336
526591
526830
527072
527312
527559
527810
528067
528320
528587
528841
529084
529323
529559
529805
530053
530301
530549
530798
531049
531279
531503
531718
531934
532155
532383
532623
532868
533106
533357
533584
533813
534040
534277
534519
534769
535012
535252
535489
535734
535966
536197
536440
536692
536954
537217
537465
537702
537949
538195
538437
538679
538937
539195
539455
539705
539946
540191
540449
540704
540959
541228
541495
541769
542025
542275
542537
542804
543070
543340
543612
543883
544153
544407
544659
544930
545166
545473
545744
546013
546273
546529
546778
547027
547291
547556
547816
548081
548339
548597
548853
549104
549360
549638
549911
550177
550440
550693
550956
551211
551466
551736
552022
552293
552555
552819
553074
553335
553593
553854
554134
554413
554682
554940
555199
555461
555728
555996
556267
556552
556831
557090
557347
557604
557871
558143
558411
558683
558966
559228
559481
559735
559989
560258
560528
560798
561065
561337
561588
561835
562089
562342
562611
562883
563151
563408
563674
563925
564172
564426
564680
564948
565211
565466
565711
565953
566185
566420
566643
566895
567140
567396
567631
567874
568100
568342
568570
568807
569047
569302
569551
569801
570034
570259
570493
570736
570964
571197
571441
571682
571932
572175
572406
572631
572868
573118
573368
573613
573871
574122
574376
574624
574867
575115
575385
575652
575913
576177
576438
576696
576946
577197
577457
577734
578003
578268
578535
578792
579052
579305
579557
579827
580108
580346
580633
580886
581141
581399
581650
581900
582170
582445
582707
582959
583210
583461
583663
583975
584234
584517
584786
585048
585301
585558
585818
586082
586350
586621
586900
587166
587420
587673
587921
588183
588451
588718
588984
589261
589523
589770
590023
590274
590540
590816
591085
591357
591635
591894
592147
592412
592682
592962
593237
593511
593783
594048
594308
594566
594832
595113
595401
595673
595936
596174
596461
596715
596981
597249
597529
597810
598072
598325
598590
598848
599103
599372
599640
599917
600186
600445
600695
600967
601231
601493
601769
602040
602314
602572
602820
603077
603346
603542
603880
604145
604421
604687
604939
605188
605452
605728
606003
606268
606537
606803
607067
607316
607563
607836
608054
608387
608655
608922
609185
609447
609702
609962
610248
610528
610793
611060
611319
611585
611850
612115
612390
612672
612947
613208
613462
613720
613984
614247
614517
614801
615080
615345
615607
615866
616132
616404
616679
616955
617246
617512
617767
618029
618290
618560
618830
619104
619381
619653
619908
620160
620417
620682
620956
621228
621496
621773
622034
622285
622544
622807
623085
623365
623634
623907
624180
624433
624684
624947
625214
625494
625766
626031
626298
626565
626824
627078
627352
627630
627914
628186
628443
628706
628973
629235
629502
629778
630058
630340
630605
630860
631128
631395
631633
631940
632216
632496
632759
633015
633267
633537
633797
634066
634339
634606
634873
635131
635387
635647
635922
636197
636469
636747
637011
637273
637533
637789
638061
638343
638620
638889
639159
639426
639691
639953
640219
640501
640769
641023
641270
641510
641752
641986
642227
642467
642733
642995
643249
643489
643723
643961
644209
644458
644706
644965
645232
645486
645725
645969
646210
646462
646721
646986
647253
647531
647793
648043
648300
648562
648780
649110
649380
649665
649942
