168
580
964
1324
1701
2091
2508
2870
3248
3643
4013
4348
4697
5082
5450
5771
6150
6582
6975
7326
7727
8115
8449
8643
9045
9449
9827
10194
10574
10986
11381
11740
12116
12492
12871
13236
13606
13979
14363
14697
15048
15458
15833
16162
16520
16899
17288
17645
18011
18392
18770
19111
19510
19919
20311
20663
21024
21386
21769
22138
22496
22900
23256
23623
24031
24439
24789
25130
25514
25895
26252
26635
27027
27393
27718
28119
28524
28912
29295
29679
30048
30413
30776
31134
31503
31857
32223
32613
33000
33340
33705
34089
34478
34859
35229
35625
36006
36338
36704
37111
37502
37853
38210
38568
38960
39324
39684
40082
40458
40794
41189
41587
41942
42285
42671
43020
43390
43754
44110
44468
44796
45148
45549
45967
46331
46700
47079
47468
47839
48210
48607
48988
49317
49692
50104
50491
50841
51192
51542
51936
52299
52676
53080
53469
53849
54256
54660
55017
55395
55766
56183
56563
56935
57312
57686
58004
58378
58789
59168
59514
59871
60234
60597
60927
61301
61676
62039
62358
62770
63179
63550
63897
64254
64636
65040
65415
65788
66174
66547
66880
67215
67587
67995
68310
68591
68878
69215
69533
69864
70316
70767
71164
71620
72043
72472
72865
73250
73670
74102
74492
74843
75214
75632
76038
76394
76782
77162
77520
77870
78225
78594
78970
79340
79677
80068
80479
80862
81176
81491
81847
82264
82654
83032
83430
83803
84154
84532
84908
85286
85628
85983
86372
86795
87155
87500
87854
88178
88557
88978
89394
89755
90136
90520
90921
91273
91631
92030
92410
92756
93145
93564
93951
94315
94685
95082
95480
95838
96217
96600
96982
97358
97720
98084
98456
98796
99145
99579
99983
100351
100738
101128
101508
101849
102197
102559
102926
103250
103591
104010
104414
104794
105169
105548
105948
106310
106668
107059
107435
107757
108122
108532
108930
109280
109638
110020
110422
110794
111115
111469
111823
112144
112548
112970
113362
113715
114083
114470
114845
115214
115593
115968
116301
116678
117060
117432
117784
118141
118510
118921
119301
119665
120057
120449
120791
121143
121533
121944
122319
122713
123123
123547
123922
124306
124693
125078
125469
125866
126252
126640
126995
127357
127787
128169
128504
128851
129215
129599
129954
130327
130704
131074
131394
131765
132156
132519
132879
133232
133615
134024
134392
134738
135119
135519
135839
136185
136582
136991
137366
137750
138142
138532
138893
139271
139657
140003
140362
140740
141131
141517
141872
142050
142407
142781
143132
143451
143809
144207
144587
145002
145415
145806
146163
146526
146712
147130
147501
147876
148274
148638
148983
149372
149784
150156
150505
150878
151294
151686
152030
152401
152765
153124
153499
153878
154256
154641
154985
155324
155737
156138
156483
156856
157236
157608
158008
158419
158803
159125
159487
159908
160317
160674
161058
161431
161808
162191
162584
162966
163336
163677
164032
164441
164833
165183
165542
165923
166333
166695
167058
167441
167818
168140
168532
168941
169312
169664
170029
170379
170756
171115
171473
171845
172223
172570
172954
173333
173708
174038
174383
174742
175138
175505
175871
176262
176623
176935
177311
177712
178099
178439
178798
179179
179576
179937
180303
180667
181018
181370
181735
182110
182478
182837
183019
183385
183797
184191
184545
184912
185290
185640
185978
186327
186714
187057
187399
187770
188202
188569
188931
189315
189682
190047
190417
190802
191173
191505
191845
192233
192631
192970
193325
193683
194041
194421
194791
195175
195559
195922
196271
196697
197095
197422
197792
198178
198544
198936
199341
199717
200050
200373
200704
201125
201502
201896
202288
202648
203003
203393
203776
204157
204519
204867
205268
205664
206014
206347
206703
207054
207401
207763
208139
208525
208856
209160
209571
209972
210331
210699
211083
211453
211826
212232
212608
212994
213360
213708
214092
214485
214862
215191
215550
215946
216354
216707
217083
217476
217817
218172
218549
218917
219270
219589
219939
220331
220700
221037
221395
221754
222080
222449
222845
223221
223612
223970
224335
224748
225145
225482
225849
226225
226588
226962
227347
227720
228070
228384
228700
229088
229487
229846
230212
230578
230931
231297
231687
232061
232410
232763
233122
233535
233915
234267
234640
235005
235395
235751
236106
236485
236867
237205
237605
238025
238384
238719
239065
239421
239819
240196
240575
240942
241291
241600
241960
242310
242676
243036
243378
243709
244080
244433
244776
245161
245548
245878
246259
246663
247049
247393
247743
248103
248500
248860
249194
249559
249941
250293
250696
251096
251468
251809
252162
252526
252936
253312
253673
254031
254370
254680
254975
255255
255547
255845
256119
256380
256658
257145
257591
257930
258227
258516
258787
259223
259633
260006
260374
260770
261166
261572
261973
262366
262702
263001
263319
263682
264059
264434
264816
265175
265496
265841
266165
266515
266900
267289
267631
267956
268257
268538
268810
269079
269344
269585
269875
270245
270601
270941
271357
271749
272178
272607
273003
273409
273814
274194
274575
274932
275304
275683
276043
276454
276871
277270
277649
277971
278281
278692
279092
279448
279855
280259
280651
281042
281417
281778
282139
282480
282795
283126
283522
283924
284293
284660
285064
285485
285872
286234
286582
286935
287332
287705
288067
288447
288824
289158
289488
289854
290239
290611
290938
291273
291697
292094
292430
292773
293136
293483
293842
294209
294569
294940
295286
295626
295990
296357
296704
297036
297380
297745
298108
298426
298770
299196
299595
299950
300386
300830
301215
301531
301873
302267
302689
303055
303426
303816
304188
304615
305025
305418
305766
306083
306436
306875
307262
307639
308039
308432
308825
309255
309673
310055
310396
310737
311140
311541
311913
312252
312594
312956
313374
313729
314063
314450
314832
315187
315583
315993
316361
316689
317044
317424
317786
318118
318470
318834
319161
319518
319919
320294
320629
320972
321317
321655
321997
322351
322698
323063
323376
323684
324026
324371
324696
325064
325439
325794
326155
326546
326930
327326
327673
327990
328384
328811
329186
329545
329936
330312
330664
331039
331428
331767
332079
332402
332779
333104
333429
333854
334258
334623
335040
335425
335754
336061
336396
336757
337112
337483
337863
338223
338546
338893
339303
339685
340010
340325
340651
340984
341328
341683
342032
342414
342754
343089
343499
343895
344231
344560
344886
345224
345570
345913
346277
346676
347013
347333
347728
348087
348390
348708
349081
349444
349789
350195
350582
350932
351242
351550
351925
352353
352731
353111
353482
353810
354138
354467
354786
355094
355389
355658
355914
356211
356559
356970
357354
357750
358153
358554
358981
359381
359775
360131
360524
360927
361300
361638
361956
362300
362677
363086
363463
363817
364207
364552
364907
365208
365492
365793
366135
366412
366679
366979
367472
367900
368330
368748
369152
369586
369976
370369
370762
371159
371575
371962
372365
372761
373140
373519
373942
374341
374711
375051
375376
375779
376187
376518
376894
377299
377680
378028
378375
378728
379104
379456
379807
380244
380637
380992
381347
381727
382111
382505
382890
383275
383671
384025
384392
384786
385179
385551
385904
386266
386660
387022
387350
387747
388130
388480
388860
389234
389626
389981
390324
390697
391114
391484
391793
392150
392522
392890
393285
393675
394044
394357
394688
395043
395458
395808
396178
396572
396934
397290
397667
398049
398389
398695
399042
399435
399838
400200
400571
400940
401265
401647
402053
402430
402784
403164
403526
403912
404285
404657
405038
405392
405706
406079
406489
406897
407278
407668
408059
408478
408878
409278
409631
409976
410387
410755
411118
411467
411811
412105
412470
412864
413231
413560
413901
414238
414573
414889
415194
415497
415807
416088
416384
416725
417103
417429
417739
418075
418430
418737
419051
419378
419708
420001
420292
420616
420996
421385
421785
422172
422527
422907
423329
423706
424070
424466
424825
425187
425595
425974
426328
426701
427071
427397
427763
428195
428602
429000
429377
429806
430225
430612
431019
431427
431820
432269
432660
433022
433418
433814
434208
434597
434968
435312
435695
436086
436469
436834
437195
437567
437926
438329
438701
439060
439397
439733
440048
440404
440835
441238
441608
441971
442292
442614
442952
443295
443592
443893
444219
444564
444918
445252
445587
445921
446241
446539
446855
447208
447520
447795
448070
448354
448762
449174
449551
449928
450295
450621
450908
451232
451663
452050
452352
452653
452989
453362
453767
454132
454468
454843
455210
455517
455833
456178
456535
456900
457075
457415
457781
458147
458470
458790
459139
459469
459764
460090
460435
460791
461128
461469
461831
462229
462578
462943
463335
463720
464081
464517
464918
465283
465666
466049
466436
466852
467246
467602
467987
468374
468753
469158
469561
469908
470218
470611
471054
471419
471725
472066
472429
472796
473167
473545
473924
474267
474590
474936
475315
475666
476033
476409
476754
477059
477428
477804
478139
478464
478811
479191
479585
479956
480322
480695
481047
481217
481611
482031
482404
482742
483125
483501
483855
484231
484568
484909
485214
485516
485878
486244
486557
486876
487206
487527
487813
488134
488480
488774
489051
489377
489760
490147
490496
490886
491273
491609
491936
492295
492680
493014
493373
493736
494076
494435
494817
495171
495508
495850
496172
496487
496877
497230
497555
497929
498285
498614
499006
499401
499759
500108
500466
500801
501183
501569
501934
502272
502627
502984
503334
503689
504050
504408
504776
505149
505525
505890
506267
506617
506950
507313
507716
508084
508445
508822
509157
509508
509896
510259
510637
510983
511359
511755
512117
512470
512838
513182
513483
513833
514262
514602
514924
515268
515628
515919
516233
516573
516905
517207
517548
517895
518250
518602
518957
519282
519586
519931
520258
520622
520975
521325
521643
521932
522211
522537
522858
523221
523601
523943
524253
524598
524993
525347
525670
525999
526316
526596
526921
527259
527606
527898
528179
528442
528688
528928
529204
529661
530048
530386
530753
531148
531541
531880
532227
532588
532951
533346
533770
534160
534535
534906
535275
535634
536010
536388
536784
537146
537504
537888
538217
538553
538925
539286
539631
540054
540434
540786
541143
541460
541742
542104
542488
542800
543102
543435
543787
544099
544459
544829
545129
545425
545748
546136
546550
546951
547337
547688
548052
548423
548835
549202
549526
549885
550251
550616
551013
551367
551670
551997
552352
552667
553005
553416
553814
554197
554580
554965
555341
555705
556038
556353
556661
556956
557277
557609
557949
558260
558586
558949
559286
559609
559953
560268
560571
560969
561359
561736
562097
562456
562782
563130
563478
563805
564133
564433
564760
565061
565385
565750
566141
566488
566824
567157
567485
567768
568082
568400
568719
569032
569309
569585
569946
570367
570709
571003
571301
571635
571936
572244
572609
572995
573354
573654
573946
574267
574645
574968
575272
575631
575996
576346
576703
577059
577396
577723
578010
578287
578572
578935
579311
579636
579968
580321
580680
581037
581383
581740
582105
582417
582723
583091
583454
583779
584096
584450
584826
585152
585495
585852
586221
586595
586958
587348
587759
588154
588516
588880
589241
589619
590005
590400
590807
591187
591589
592009
592411
592802
593191
593549
593963
594366
594757
595136
595484
595851
596265
596634
596993
597396
597759
598084
598445
598826
599157
599446
599755
600147
600549
600897
601255
601647
602010
602355
602732
603093
603417
603741
604088
604415
604776
605153
605529
605902
606240
606605
607020
607390
607752
608116
608465
608758
609078
609421
609746
610040
610334
610622
610922
611221
611505
611773
612034
612351
612632
612937
613297
613697
614039
614323
614630
614955
615301
615671
615991
616335
616702
617075
617402
617801
618180
618523
618863
619217
619599
620009
620415
620804
621180
621563
621950
622340
622685
623025
623372
623739
624087
624456
624833
625160
625486
625841
626258
626640
626968
627304
627591
627861
628106
628382
628882
629276
629670
630075
630477
630824
631163
631553
631930
632273
632556
632925
633342
633741
634097
634439
634805
635189
635545
635859
636201
636582
636959
637323
637698
638067
638423
638739
639071
639471
639856
640178
640506
640847
641214
641625
641956
642267
642606
642925
643219
643580
643979
644343
644680
645048
645420
645803
646185
646575
646918
647213
647499
647805
648140
648590
649006
649362
649673
