314
731
1147
1557
1970
2362
2743
3168
3572
3963
4351
4730
5142
5546
5940
6328
6710
7093
7507
7906
8296
8677
9063
9476
9897
10298
10700
11111
11518
11949
12363
12758
13160
13552
13957
14381
14770
15156
15543
15959
16362
16769
17151
17532
17931
18325
18723
19117
19479
19843
20245
20633
21025
21401
21770
22141
22547
22937
23333
23705
24075
24473
24870
25259
25648
26019
26378
26781
27168
27552
27934
28295
28668
29065
29456
29837
30213
30573
30763
31352
31734
32125
32494
32857
33249
33649
34022
34404
34783
35149
35551
35953
36335
36722
37093
37491
37895
38290
38678
39066
39446
39853
40255
40652
41028
41416
41826
42231
42632
43018
43413
43811
44220
44627
45029
45407
45603
46202
46613
47010
47404
47784
48187
48586
48984
49381
49761
50134
50544
50939
51326
51723
52096
52497
52899
53304
53697
54087
54459
54870
55278
55660
56053
56432
56809
57223
57610
57987
58376
58736
59142
59545
59928
60311
60695
61076
61488
61891
62277
62667
63048
63449
63867
64258
64642
65043
65428
65844
66253
66631
67029
67402
67809
68224
68606
68995
69378
69594
70158
70554
70935
71310
71666
72073
72457
72852
73230
73608
73987
74394
74794
75200
75589
75962
76391
76795
77197
77598
77976
78368
78779
79175
79577
79949
80322
80507
81113
81493
81878
82247
82612
83003
83388
83754
84130
84490
84864
85267
85652
86031
86415
86780
87126
87597
87990
88389
88767
88949
89346
89910
90299
90697
90916
91461
91874
92271
92661
92955
93429
93843
94260
94649
94863
95418
95824
96235
96628
97013
97406
97778
98190
98590
98983
99361
99737
100145
100520
100947
101334
101721
102109
102521
102925
103327
103663
104059
104521
104924
105319
105511
106076
106487
106896
107285
107500
108050
108417
108830
109221
109406
109959
110334
110693
111089
111470
111841
112204
112560
112917
113310
113680
114056
114433
114798
115178
115583
115958
116335
116701
117065
117454
117851
118234
118613
118999
119374
119787
120192
120568
120949
121321
121705
122090
122247
122818
123190
123540
123920
124309
124668
125036
125395
125757
126139
126528
126905
127271
127640
128018
128402
128797
129173
129531
129904
130288
130683
131008
131455
131828
132186
132587
132959
133356
133731
133957
134479
134882
135264
135651
136027
136380
136776
137175
137552
137952
138326
138703
139106
139508
139894
140280
140599
141046
141457
141846
142227
142611
142975
143376
143782
144168
144554
144944
145323
145552
146138
146527
146925
147291
147515
148104
148495
148879
149259
149528
150042
150455
150830
151214
151581
151964
152364
152747
153114
153500
153870
154262
154663
154992
155414
155786
156162
156559
156945
157325
157701
158079
158478
158887
159269
159667
160047
160249
160849
161261
161671
162059
162458
162880
163303
163708
164107
164340
164924
165349
165749
166153
166549
166935
167363
167763
168157
168560
168914
169361
169770
170161
170550
170927
171213
171737
172122
172515
172895
173272
173674
174085
174467
174848
175240
175635
176048
176456
176853
177067
177636
178063
178485
178871
179087
179639
180056
180463
180834
181230
181603
181991
182387
182791
183171
183458
183906
184304
184704
185088
185320
185839
186026
186597
186991
187366
187735
188098
188464
188860
189250
189636
190015
190376
190786
191189
191579
191973
192350
192717
193133
193364
193917
194304
194666
195057
195463
195825
196243
196630
196998
197417
197826
198213
198614
198993
199387
199803
200180
200582
200973
201342
201753
202150
202537
202913
203121
203674
204084
204485
204872
205036
205599
206004
206384
206765
207122
207485
207844
208208
208587
208944
209305
209659
210006
210375
210726
211093
211441
211784
212130
212499
212871
213222
213570
213908
214259
214617
214980
215332
215684
216023
216356
216694
217062
217407
217732
218072
218393
218737
219088
219421
219757
220092
220420
220735
221089
221438
221771
222111
222436
222760
223109
223466
223809
224134
224466
224797
225110
225472
225810
226135
226464
226760
227094
227417
227770
228110
228426
228751
229076
229392
229723
230079
230404
230735
231061
231385
231727
232073
232426
232760
233088
233421
233757
234104
234462
234802
235146
235477
235810
236180
236546
236915
237266
237620
237953
238344
238709
239073
239430
239793
240104
240484
240848
241193
241550
241886
242214
242592
242952
243311
243665
244016
244354
244725
245111
245476
245850
246206
246553
246942
247331
247689
248072
248432
248777
249160
249546
249901
250270
250624
250968
251344
251718
251974
252152
252335
252505
252801
252948
253286
253747
254125
254485
254850
255191
255556
255940
256308
256672
257033
257381
257771
258150
258515
258875
259242
259590
259968
260354
260725
261084
261453
261815
262202
262592
262971
263336
263602
264096
264483
264867
265248
265591
265968
266352
266740
267110
267486
267849
268217
268521
269004
269389
269770
270139
270524
270923
271143
271683
272057
272411
272805
273191
273566
273938
274300
274630
275008
275376
275733
276089
276430
276747
277113
277478
277817
278154
278498
278823
279161
279526
279878
280224
280561
280898
281219
281586
281944
282283
282639
282985
283319
283688
284062
284419
284774
285133
285471
285835
286213
286562
286921
287265
287603
287967
288342
288689
289036
289378
289712
290065
290431
290783
291135
291476
291818
292178
292536
292913
293264
293606
293958
294314
294681
295044
295409
295753
296098
296369
296836
297218
297586
297940
298297
298654
299040
299413
299775
300126
300477
300853
301246
301536
301989
302351
302697
303077
303466
303825
304206
304558
304911
305144
305667
306028
306397
306748
307095
307468
307849
308208
308577
308922
309253
309616
309986
310334
310694
311047
311372
311744
312123
312471
312829
313178
313517
313876
314258
314626
314991
315343
315677
316054
316423
316790
317145
317498
317840
318199
318567
318921
319265
319611
319941
320295
320663
321023
321363
321703
322043
322380
322741
323099
323448
323787
324115
324464
324819
325180
325518
325853
326195
326528
326895
327252
327592
327946
328274
328604
328986
329354
329706
330054
330406
330741
331124
331498
331852
332196
332533
332861
333214
333586
333938
334281
334629
334968
335304
335682
336037
336380
336725
337064
337394
337777
338135
338476
338824
339173
339502
339874
340242
340570
340908
341244
341564
341916
342274
342620
342952
343283
343625
343967
344344
344703
345041
345385
345725
346067
346426
346793
347134
347478
347820
348144
348503
348881
349232
349576
349919
350262
350634
350991
351347
351689
352027
352351
352710
353068
353420
353763
354092
354263
354762
355052
355448
355783
355972
356435
356748
357108
357445
357772
358111
358424
358744
359077
359435
359779
360104
360440
360766
361085
361437
361786
362120
362464
362799
363118
363468
363841
364197
364535
364885
365219
365558
365918
366274
366609
366950
367290
367612
367973
368345
368677
369024
369370
369692
370053
370410
370751
371083
371421
371740
372070
372418
372763
373089
373418
373745
374056
374404
374736
375073
375401
375727
376055
376392
376741
377100
377439
377776
378113
378441
378791
379134
379489
379819
380143
380473
380820
381164
381514
381852
382178
382512
382861
383208
383556
383899
384226
384557
384895
385244
385596
385921
386270
386601
386917
387286
387638
387987
388324
388664
388989
389333
389707
390052
390387
390729
391061
391384
391757
392101
392428
392758
393098
393411
393766
394133
394464
394807
395146
395480
395831
396208
396562
396894
397233
397567
397891
398238
398598
398922
399254
399581
399897
400242
400598
400940
401262
401585
401916
402239
402570
402925
403250
403578
403904
404232
404576
404933
405284
405615
405948
406277
406609
406955
407299
407629
407952
408276
408600
408949
409290
409630
409962
410288
410607
410952
411294
411633
411963
412278
412600
412917
413270
413618
413959
414301
414631
414948
415310
415673
416010
416356
416683
417007
417332
417697
418035
418364
418703
419028
419343
419695
420052
420381
420716
421048
421365
421700
422046
422395
422716
423056
423377
423688
424036
424385
424721
425052
425389
425714
426052
426411
426771
427105
427445
427781
428107
428459
428807
429145
429474
429811
430128
430471
430824
431169
431497
431826
432153
432483
432833
433176
433514
433839
434174
434499
434837
435330
435524
435851
436169
436494
436815
437152
437494
437820
438138
438455
438771
439114
439460
439793
440134
440455
440790
441131
441478
441832
442170
442512
442848
443186
443549
443908
444250
444592
444919
445233
445587
445926
446267
446589
446912
447230
447543
447894
448227
448546
448867
449179
449475
449792
450128
450444
450749
451050
451353
451635
451934
452277
452590
452891
453198
453501
453802
454114
454455
454789
455093
455405
455716
456013
456340
456681
457008
457319
457624
457941
458251
458579
458922
459251
459557
459866
460179
460492
460827
461165
461483
461798
462103
462418
462735
463059
463405
463720
464034
464349
464655
464983
465302
465632
465941
466242
466538
466845
467166
467481
467819
468119
468415
468723
469012
469350
469663
469995
470304
470597
470905
471200
471529
471860
472183
472496
472802
473112
473426
473765
474094
474427
474759
475064
475378
475715
476056
476396
476724
477042
477360
477659
477994
478337
478664
478985
479303
479610
479916
480259
480592
480905
481226
481546
481842
482153
482481
482815
483130
483444
483758
484057
484383
484713
485037
485344
485652
485965
486257
486581
486911
487243
487546
487849
488159
488457
488788
489118
489447
489758
490060
490375
490674
491003
491320
491651
491957
492261
492574
492875
493206
493534
493846
494163
494461
494770
495074
495399
495718
496041
496350
496643
496964
497277
497605
497933
498254
498564
498860
499168
499489
499805
500124
500431
500734
501036
501333
501653
501969
502281
502587
502893
503195
503491
503821
504139
504462
504767
505076
505382
505682
506011
506342
506667
506972
507289
507585
507882
508220
508540
508858
509168
509482
509785
510080
510434
510769
511094
511421
511742
512055
512363
512719
513055
513375
513708
514042
514347
514684
515038
515352
515667
515972
516283
516574
516893
517230
517540
517837
518134
518436
518730
519048
519384
519701
520001
520304
520615
520918
521241
521580
521896
522203
522509
522822
523126
523450
523779
524090
524402
524707
525015
525326
525647
525979
526294
526606
526915
527218
527550
527885
528226
528545
528855
529165
529463
529792
530107
530436
530741
531042
531346
531642
531969
532292
532618
532933
533230
533536
533832
534163
534496
534813
535134
535445
535750
536060
536404
536729
537054
537385
537689
537999
538319
538661
538992
539316
539644
539960
540266
540608
540951
541281
541612
541931
542246
542558
542894
543235
543547
543874
544194
544495
544823
545165
545497
545806
546130
546440
546728
547057
547385
547702
548000
548297
548602
548885
549203
549528
549850
550149
550450
550759
551051
551369
551700
552032
552344
552649
552972
553278
553606
553937
554265
554574
554875
555191
555487
555804
556131
556439
556747
557051
557354
557651
557977
558289
558600
558914
559196
559510
559804
560110
560428
560725
561040
561321
561623
561916
562219
562537
562834
563127
563420
563703
563990
564293
564590
564895
565191
565482
565774
566063
566366
566680
566993
567290
567596
567884
568173
568472
568791
569106
569416
569740
570041
570344
570658
570986
571299
571594
571895
572194
572477
572771
573108
573420
573717
574034
574337
574629
574931
575271
575528
575892
576223
576531
576834
577125
577460
577733
578071
578382
578672
578967
579249
579558
579875
580168
580378
580709
581003
581270
581570
581876
582174
582454
582737
583022
583312
583599
583893
584212
584509
584797
585091
585381
585668
585979
586290
586602
586893
587184
587479
587770
588073
588388
588703
589001
589304
589608
589912
590243
590572
590913
591230
591539
591857
592172
592502
592830
593154
593466
593771
594072
594385
594702
595014
595331
595640
595940
596249
596555
596887
597214
597535
597850
598142
598440
598751
599066
599375
599679
599973
600260
600550
600830
601152
601457
601763
602060
602360
602657
602941
603277
603609
603918
604243
604557
604856
605165
605519
605848
606153
606474
606782
607080
607391
607729
608064
608368
608694
609010
609304
609630
609964
610283
610584
610897
611201
611492
611815
612136
612459
612759
613067
613372
613658
613985
614307
614629
614926
615231
615531
615818
616136
616456
616786
617087
617391
617703
617986
618301
618623
618936
619237
619526
619826
620107
620404
620710
621022
621313
621601
621897
622195
622487
622808
623115
623421
623722
624020
624320
624608
624915
625222
625523
625825
626118
626411
626703
627012
627311
627627
627918
628205
628505
628785
629085
629408
629702
629997
630287
630570
630850
631148
631451
631759
632036
632346
632628
632903
633213
633515
633824
634132
634425
634723
635011
635288
635606
635915
636216
636511
636812
637109
637391
637644
638040
638372
638683
639004
639313
639611
639950
640269
640572
640860
641154
641443
641711
642001
642316
642609
642884
643160
643442
643718
643972
644278
644568
644858
645131
645401
645676
645948
646214
646511
646808
647086
647359
647627
647898
648152
648426
648715
648999
649267
649528
649790
