161
517
849
1210
1629
1976
2326
2698
3065
3405
3736
4113
4488
4822
5179
5519
5844
6160
6496
6856
7180
7495
7836
8184
8517
8829
9164
9498
9841
10157
10491
10828
11158
11473
11790
12112
12428
12734
13086
13422
13734
14088
14470
14808
15190
15600
15964
16317
16695
17071
17425
17787
18162
18517
18863
19216
19567
19882
20203
20539
20875
21175
21488
21832
22169
22519
22878
23219
23541
23872
24236
24565
24916
25285
25659
26012
26374
26733
27069
27383
27709
28036
28355
28664
28986
29352
29672
30002
30353
30694
31030
31381
31766
32108
32450
32797
33145
33471
33811
34161
34510
34828
35197
35542
35866
36233
36609
36924
37251
37633
38010
38334
38702
39097
39434
39773
40135
40502
40822
41156
41514
41843
42146
42464
42808
43133
43452
43801
44156
44477
44821
45190
45523
45860
46244
46607
46922
47234
47564
47876
48190
48521
48859
49189
49536
49891
50222
50543
50913
51271
51598
51944
52313
52640
52951
53283
53611
53912
54221
54555
54884
55194
55525
55924
56278
56612
56982
57328
57636
57980
58379
58724
59065
59428
59781
60090
60427
60776
61123
61437
61772
62141
62474
62777
63132
63513
63845
64186
64565
64924
65237
65547
65862
66177
66475
66791
67137
67463
67798
68230
68600
68973
69354
69736
70093
70469
70839
71192
71566
71936
72305
72656
73016
73380
73724
74076
74434
74797
75131
75467
75832
76193
76525
76866
77233
77587
77909
78231
78562
78873
79189
79504
79828
80142
80484
80841
81195
81516
81852
82172
82476
82792
83109
83406
83705
84020
84321
84611
84911
85223
85531
85873
86233
86578
86956
87319
87653
88005
88331
88636
88935
89256
89613
89958
90303
90698
91099
91465
91834
92215
92570
92893
93258
93632
93971
94289
94650
95010
95331
95663
96010
96333
96637
96978
97348
97677
98037
98411
98727
99037
99372
99701
100009
100327
100662
100986
101336
101730
102085
102415
102773
103154
103498
103838
104196
104531
104848
105187
105573
105956
106305
106648
106986
107299
107616
107924
108260
108587
108919
109282
109652
109989
110353
110740
111110
111442
111797
112184
112535
112858
113198
113553
113881
114200
114542
114877
115196
115530
115871
116196
116525
116888
117260
117585
117924
118308
118635
118964
119306
119660
119980
120312
120658
121016
121333
121682
122038
122357
122664
123000
123352
123672
123993
124377
124753
125080
125422
125763
126096
126396
126731
127128
127470
127786
128134
128501
128814
129131
129479
129821
130127
130446
130792
131111
131413
131737
132082
132405
132711
133043
133417
133777
134103
134490
134860
135189
135528
135897
136226
136526
136854
137210
137527
137840
138200
138582
138912
139259
139660
140003
140316
140670
141055
141389
141693
142046
142415
142772
143109
143480
143879
144231
144555
144914
145259
145577
145886
146222
146567
146882
147204
147559
147936
148276
148649
149032
149365
149679
150001
150330
150636
150952
151285
151629
151937
152249
152582
152919
153223
153561
153934
154294
154624
154962
155296
155605
155906
156234
156588
156908
157213
157540
157850
158145
158446
158799
159149
159472
159863
160256
160585
160926
161284
161617
161932
162250
162587
162915
163216
163522
163856
164166
164478
164808
165182
165537
165852
166174
166507
166823
167127
167422
167712
168011
168319
168623
168931
169233
169677
170094
170459
170824
171199
171579
171937
172314
172688
173053
173410
173773
174130
174451
174787
175173
175525
175852
176222
176591
176916
177238
177589
177943
178289
178603
178956
179327
179706
180030
180353
180688
181025
181330
181644
181993
182349
182668
183004
183378
183731
184039
184382
184759
185094
185411
185747
186080
186385
186699
187028
187348
187659
187985
188334
188684
189005
189358
189761
190119
190470
190822
191166
191481
191817
192171
192504
192832
193162
193521
193863
194215
194571
194915
195239
195577
195911
196238
196553
196871
197207
197534
197847
198183
198529
198887
199212
199555
199922
200255
200576
200906
201222
201537
201872
202231
202567
202907
203286
203626
203944
204281
204627
204962
205285
205634
205986
206295
206624
206959
207278
207586
207917
208291
208619
208925
209298
209676
210004
210322
210674
211020
211333
211654
211989
212310
212610
212920
213255
213583
213881
214199
214549
214868
215168
215480
215807
216119
216416
216721
217089
217412
217712
218039
218372
218690
218988
219307
219670
220005
220309
220629
220976
221288
221588
221929
222293
222609
222910
223230
223614
223951
224299
224682
225030
225336
225681
226037
226365
226674
226999
227357
227676
227982
228301
228613
228921
229230
229563
229880
230194
230496
230790
231081
231408
231738
232038
232343
232680
232997
233298
233621
233972
234300
234602
234932
235301
235631
235936
236292
236661
236990
237298
237654
238000
238309
238630
238983
239320
239627
239951
240309
240629
240932
241261
241608
241933
242235
242547
242909
243234
243540
243874
244203
244512
244807
245124
245469
245783
246074
246394
246705
247016
247303
247615
247940
248246
248543
248863
249208
249527
249834
250176
250540
250861
251197
251538
251879
252196
252510
252865
253225
253541
253909
254291
254625
254945
255269
255625
255939
256272
256678
257064
257400
257741
258107
258427
258732
259046
259365
259677
260003
260333
260662
260987
261335
261729
262079
262415
262740
263054
263365
263681
263990
264305
264602
264913
265243
265562
265870
266186
266492
266786
267079
267400
267751
268065
268414
268841
269201
269552
269922
270275
270593
270927
271292
271623
271929
272273
272664
273015
273333
273682
274050
274385
274706
275046
275418
275746
276065
276413
276761
277072
277409
277769
278111
278426
278758
279106
279411
279703
280005
280321
280620
280910
281222
281558
281863
282152
282469
282804
283119
283416
283747
284125
284443
284769
285105
285426
285729
286040
286359
286676
286978
287279
287622
287944
288255
288573
288905
289229
289533
289896
290291
290647
290997
291348
291705
292020
292346
292700
293057
293386
293737
294120
294473
294791
295141
295494
295835
296142
296459
296812
297132
297432
297756
298108
298460
298774
299113
299465
299778
300086
300409
300743
301060
301376
301707
302052
302365
302690
303089
303467
303803
304135
304472
304806
305108
305450
305809
306157
306467
306790
307135
307489
307799
308123
308457
308797
309106
309416
309761
310088
310386
310708
311042
311366
311668
311968
312279
312595
312885
313186
313512
313865
314182
314542
314991
315360
315737
316121
316498
316845
317204
317577
317915
318245
318595
318944
319258
319579
319943
320293
320608
320965
321342
321692
322002
322343
322734
323071
323397
323763
324119
324437
324734
325075
325411
325714
326012
326318
326627
326924
327217
327537
327927
328256
328632
329038
329408
329729
330073
330457
330774
331087
331422
331754
332061
332391
332739
333077
333384
333705
334033
334354
334669
335001
335390
335728
336043
336373
336709
337029
337336
337685
338049
338369
338677
339022
339377
339705
340015
340379
340772
341097
341409
341729
342040
342350
342666
343024
343380
343692
344041
344458
344819
345154
345529
345909
346229
346552
346882
347226
347540
347870
348217
348572
348887
349212
349594
349978
350302
350630
350965
351278
351569
351891
352218
352535
352827
353146
353481
353811
354111
354439
354795
355148
355456
355789
356139
356448
356740
357047
357355
357661
357952
358249
358550
358853
359144
359442
359761
360085
360391
360707
361043
361377
361690
362027
362437
362791
363128
363477
363808
364109
364433
364790
365105
365418
365740
366082
366402
366707
367027
367364
367681
367986
368300
368628
368972
369284
369600
369925
370246
370553
370870
371194
371522
371832
372187
372531
372864
373184
373508
373835
374181
374490
374813
375162
375550
375893
376251
376631
376966
377271
377590
377934
378271
378585
378892
379207
379516
379811
380119
380435
380746
381045
381358
381695
382024
382325
382632
382954
383266
383567
383874
384176
384477
384775
385062
385374
385669
385992
386322
386677
387027
387397
387833
388194
388522
388835
389136
389444
389757
390069
390392
390700
391051
391499
391878
392290
392685
393059
393432
393797
394124
394442
394762
395067
395369
395694
396031
396358
396725
397120
397459
397800
398195
398537
398867
399198
399530
399849
400179
400512
400833
401142
401497
401841
402169
402492
402847
403228
403559
403901
404241
404554
404870
405226
405611
405988
406317
406664
407021
407348
407666
407984
408317
408631
408947
409298
409647
409959
410288
410613
410941
411239
411549
411858
412181
412495
412811
413144
413474
413791
414118
414447
414757
415062
415396
415739
416043
416343
416643
416975
417276
417568
417880
418177
418458
418751
419036
419339
419626
419912
420219
420528
420829
421133
421477
421809
422123
422437
422759
423074
423384
423698
424041
424362
424692
425029
425385
425697
426007
426333
426639
426957
427331
427663
428010
428411
428777
429105
429459
429836
430166
430475
430792
431110
431408
431702
432017
432355
432667
432975
433310
433649
433949
434256
434567
434877
435171
435480
435844
436193
436509
436856
437223
437549
437852
438174
438515
438821
439116
439443
439794
440122
440430
440800
441217
441564
441890
442215
442540
442851
443146
443474
443821
444168
444484
444842
445241
445577
445909
446247
446585
446882
447177
447468
447756
448041
448315
448614
448932
449236
449569
449968
450347
450687
451079
451479
451827
452186
452552
452876
453177
453478
453811
454107
454404
454711
455038
455342
455635
455928
456260
456563
456854
457153
457466
457787
458090
458403
458740
459063
459357
459645
459938
460228
460526
460819
461110
461415
461717
462030
462336
462637
462946
463255
463570
463876
464172
464463
464743
465019
465301
465579
465851
466117
466389
466662
466928
467188
467449
467713
467982
468258
468521
468786
469060
469329
469596
469862
470138
470418
470700
470974
471271
471623
472012
472411
472787
473167
473508
473848
474209
474550
474876
475178
475490
475814
476148
476452
476778
477123
477445
477749
478052
478375
478689
478972
479261
479562
479857
480140
480441
480751
481045
481348
481663
481985
482294
482669
483065
483407
483759
484132
484503
484832
485147
485460
485798
486118
486423
486734
487065
487396
487711
488055
488430
488765
489081
489384
489696
489995
490305
490644
490964
491275
491606
491969
492317
492625
492947
493290
493598
493907
494224
494551
494869
495210
495629
496007
496381
496737
497077
497405
497719
498017
498313
498613
498925
499224
499516
499845
500185
500492
500798
501116
501453
501758
502050
502352
502658
502946
503231
503524
503829
504128
504415
504719
505051
505356
505653
505969
506277
506577
506884
507199
507511
507811
508136
508448
508761
509104
509549
509923
510322
510696
511074
511463
511839
512206
512551
512929
513307
513647
514022
514391
514724
515037
515359
515656
515941
516240
516559
516858
517145
517440
517728
518018
518298
518571
518845
519125
519423
519712
519995
520293
520625
520921
521234
521596
521985
522311
522653
523011
523353
523656
523970
524310
524694
525062
525378
525715
526123
526506
526849
527186
527528
527871
528190
528492
528807
529156
529496
529817
530161
530597
530969
531333
531692
532041
532367
532675
532982
533304
533604
533927
534258
534634
534990
535397
535800
536171
536569
536951
537307
537683
538032
538381
538699
539011
539310
539609
539939
540297
540617
540975
541305
541605
541906
542227
542592
542896
543197
543560
543915
544258
544675
545074
545422
545758
546112
546421
546719
547031
547329
547631
547955
548283
548609
548911
549225
549552
549874
550179
550522
550828
551121
551415
551703
551986
552281
552569
552900
553242
553556
553878
554305
554708
555066
555450
555833
556183
556566
556939
557299
557693
558107
558469
558871
559257
559621
560018
560394
560753
561127
561505
561849
562179
562511
562820
563122
563424
563741
564063
564360
564659
564964
565273
565572
565863
566145
566434
566727
567014
567307
567624
567925
568232
568550
568893
569239
569551
569882
570236
570668
571020
571328
571661
571978
572295
572604
572898
573225
573562
573885
574197
574506
574828
575176
575490
575801
576125
576445
576769
577069
577358
577653
577949
578240
578531
578830
579138
579453
579756
580071
580528
580952
581358
581729
582123
582501
582866
583244
583607
583954
584329
584710
585069
585449
585814
586159
586492
586836
587155
587483
587917
588283
588710
589083
589475
589862
590259
590656
591014
591337
591632
591903
592177
592446
592709
592962
593217
593474
593730
593997
594249
594518
594805
595097
595371
595646
595943
596250
596555
596839
597130
597450
597774
598088
598393
598714
599186
599557
599959
600408
600815
601195
601608
601982
602342
602750
603131
603484
603882
604311
604690
605125
605520
605904
606309
606678
607061
607448
607805
608161
608542
608901
609252
609643
610073
610488
610871
611258
611665
612023
612346
612694
613110
613505
613917
614298
614688
615049
615424
615788
616124
616418
616737
617076
617373
617671
617985
618294
618586
618889
619191
619489
619774
620053
620351
620655
620961
621238
621524
621817
622115
622413
622697
623002
623311
623608
623914
624201
624499
624791
625089
625392
625692
625990
626299
626609
626910
627210
627508
627810
628126
628418
628705
629009
629315
629623
629921
630217
630533
630856
631162
631453
631772
632107
632445
632776
633230
633634
634010
634421
634797
635187
635581
635948
636311
636676
637027
637416
637798
638154
638552
638907
639253
639626
640010
640361
640768
641131
641511
641889
642233
642597
642960
643301
643612
643915
644214
644504
644789
645093
645386
645676
645967
646248
646533
646828
647109
647393
647672
647939
648198
648471
648751
649054
649357
649646
