306
507
974
1312
1648
1968
2291
2492
2953
3294
3610
3921
4255
4451
4903
5236
5549
5879
6207
6518
6861
7197
7509
7712
8175
8382
8857
9055
9527
9740
10190
10413
10864
11070
11542
11859
12183
12498
12802
13003
13460
13661
14118
14329
14785
14983
15448
15765
16077
16401
16717
16912
17388
17719
17913
18385
18723
18925
19400
19621
20101
20433
20631
21099
21300
21761
21973
22408
22741
23059
23378
23719
24050
24403
24744
25067
25269
25753
26069
26399
26726
27044
27364
27692
27888
28368
28715
29053
29373
29702
29914
30383
30580
31063
31266
31724
32061
32372
32695
33022
33342
33664
33998
34326
34654
34992
35336
35663
36013
36351
36681
37025
37353
37678
38025
38350
38672
39012
39337
39655
39982
40297
40624
40949
41275
41605
41934
42130
42592
42924
43247
43559
43878
44203
44515
44832
45034
45489
45829
46158
46478
46811
47130
47330
47793
47995
48460
48705
49146
49487
49804
50007
50465
50792
50990
51458
51785
52112
52432
52744
52945
53405
53749
54076
54393
54723
55044
55363
55695
56016
56334
56669
56983
57177
57649
57968
58162
58621
58940
59145
59588
59795
60254
60567
60757
61205
61514
61842
62170
62489
62694
63192
63517
63720
64210
64566
64766
65246
65584
65780
66250
66584
66787
67259
67463
67933
68263
68459
68913
69123
69581
69791
70248
70486
70928
71127
71595
71804
72264
72602
72925
73247
73592
73920
74112
74592
74804
75278
75610
75929
76138
76609
76810
77284
77488
77953
78289
78603
78939
79272
79587
79921
80260
80598
80937
81282
81631
81828
82295
82638
82957
83159
83627
83829
84302
84631
84935
85141
85599
85802
86268
86584
86789
87250
87569
87774
88235
88570
88771
89237
89508
89945
90262
90462
90933
91281
91603
91915
92258
92454
92916
93260
93589
93916
94238
94434
94905
95242
95562
95878
96202
96405
96875
97211
97548
97869
98068
98530
98728
99199
99528
99844
100042
100508
100829
101148
101347
101809
102014
102468
102688
103147
103465
103664
104109
104424
104626
105065
105380
105598
106030
106225
106697
106897
107360
107578
108024
108360
108558
109013
109338
109534
109994
110314
110510
110971
111297
111492
111952
112276
112476
112934
113132
113596
113905
114207
114522
114826
115145
115475
115785
115981
116455
116659
117113
117438
117748
117951
118409
118725
118936
119388
119703
119905
120351
120670
120872
121306
121634
121830
122264
122581
122779
123227
123554
123873
124187
124386
124835
125038
125482
125802
126109
126419
126736
127044
127360
127680
127988
128306
128642
128954
129272
129605
129918
130110
130567
130767
131229
131555
131861
132074
132526
132725
133182
133496
133693
134144
134459
134653
135105
135420
135615
136064
136384
136588
137042
137360
137564
138023
138331
138525
138971
139291
139606
139928
140261
140583
140912
141237
141560
141896
142098
142561
142908
143227
143532
143861
144172
144492
144820
145132
145455
145788
146105
146421
146750
147072
147399
147722
148038
148362
148685
148994
149314
149642
149964
150277
150601
150929
151231
151544
151742
152191
152529
152854
153163
153487
153694
154151
154487
154799
155120
155453
155765
156096
156436
156757
156949
157421
157748
157953
158422
158745
158954
159424
159741
159940
160390
160712
160907
161352
161561
162013
162331
162635
162832
163302
163621
163946
164288
164607
164927
165261
165581
165779
166254
166453
166925
167263
167574
167777
168240
168445
168911
169114
169579
169913
170219
170536
170858
171056
171524
171861
172197
172514
172835
173039
173500
173850
174178
174493
174831
175148
175464
175802
176117
176439
176778
177104
177427
177761
178084
178400
178724
179049
179373
179693
180012
180332
180656
180972
181283
181609
181933
182248
182573
182895
183220
183548
183870
184188
184523
184844
185168
185501
185819
186142
186466
186781
187100
187434
187760
188074
188415
188749
189060
189390
189712
190031
190359
190677
191001
191330
191647
191964
192289
192613
192937
193262
193587
193903
194216
194527
194836
195151
195472
195779
196106
196312
196771
197111
197437
197753
198089
198282
198750
199099
199431
199753
200081
200277
200756
201099
201427
201752
202079
202274
202741
203084
203411
203719
204047
204364
204564
205035
205357
205556
206042
206371
206566
207046
207380
207577
208040
208375
208576
209041
209375
209574
210040
210247
210716
211036
211241
211692
212024
212229
212683
213001
213195
213647
213850
214309
214618
214826
215267
215577
215777
216250
216589
216785
217258
217590
217921
218241
218562
218886
219216
219533
219739
220207
220531
220730
221191
221392
221861
222181
222487
222808
223127
223440
223768
223964
224427
224776
225092
225402
225738
225936
226400
226750
227079
227405
227736
227931
228415
228760
229081
229392
229720
230050
230362
230693
231024
231337
231663
231988
232306
232643
232962
233279
233620
233933
234123
234593
234916
235115
235580
235905
236229
236553
236861
237178
237507
237834
238147
238481
238808
239134
239463
239788
240113
240454
240773
240974
241455
241784
241984
242447
242773
242975
243443
243761
244092
244411
244717
244920
245388
245714
245917
246382
246704
247026
247344
247662
247857
248317
248646
248847
249305
249644
249972
250280
250596
250920
251237
251553
251877
252201
252524
252839
253161
253475
253806
254132
254440
254772
254970
255429
255770
256087
256412
256744
256938
257408
257751
258066
258381
258694
258892
259355
259686
260007
260325
260655
260846
261319
261667
261998
262323
262661
262984
263182
263655
263980
264176
264655
264981
265177
265651
265857
266340
266665
266998
267336
267651
267848
268321
268524
268990
269321
269635
269836
270299
270501
270973
271312
271623
271948
272279
272600
272796
273264
273594
273795
274258
274581
274778
275246
275576
275770
276237
276446
276913
277114
277571
277905
278215
278413
278879
279210
279403
279874
280199
280401
280872
281196
281400
281859
282184
282382
282836
283038
283496
283699
284161
284410
284844
285189
285513
285836
286162
286353
286831
287176
287499
287820
288154
288484
288798
289126
289454
289781
290105
290424
290740
291074
291383
291696
292031
292345
292658
292988
293299
293621
293952
294145
294607
294950
295269
295594
295918
296235
296438
296916
297116
297591
297931
298248
298441
298921
299127
299593
299929
300252
300450
300920
301260
301457
301935
302133
302608
302935
303251
303569
303883
304195
304529
304855
305175
305522
305856
306177
306516
306841
307171
307499
307815
308017
308496
308819
309149
309480
309804
310121
310440
310765
311077
311388
311703
312016
312346
312661
312856
313325
313652
313850
314316
314636
314968
315296
315606
315933
316263
316571
316899
317228
317556
317878
318208
318406
318880
319218
319555
319872
320205
320405
320868
321217
321542
321860
322197
322517
322840
323178
323493
323687
324173
324375
324844
325175
325493
325696
326159
326488
326814
327021
327474
327807
328134
328455
328660
329127
329452
329783
330110
330440
330758
331091
331419
331732
331947
332409
332727
333042
333359
333678
333987
334308
334506
334973
335313
335649
335964
336301
336635
336953
337291
337618
337936
338277
338608
338938
339282
339609
339945
340277
340590
340791
341259
341590
341799
342256
342590
342789
343242
343573
343770
344233
344568
344765
345233
345559
345757
346207
346523
346720
347183
347496
347692
348150
348358
348817
349016
349469
349802
350113
350421
350740
350944
351393
351726
352046
352364
352562
353028
353239
353702
354039
354352
354549
355013
355213
355670
355999
356311
356635
356960
357274
357610
357928
358122
358608
358823
359285
359622
359937
360263
360585
360903
361226
361558
361871
362188
362514
362832
363151
363472
363794
364118
364443
364763
365078
365406
365733
366048
366381
366580
367043
367379
367697
368006
368205
368660
368865
369329
369669
369986
370303
370638
370969
371292
371617
371947
372268
372591
372912
373228
373567
373893
374209
374558
374895
375213
375556
375886
376081
376561
376756
377233
377582
377891
378206
378524
378842
379155
379475
379800
380116
380438
380757
381076
381409
381733
382059
382400
382726
382924
383407
383613
384105
384314
384803
385163
385501
385839
386176
386511
386857
387198
387540
387748
388235
388589
388782
389272
389482
389961
390160
390646
390987
391317
391510
391997
392341
392671
393014
393352
393684
393883
394362
394565
395054
395254
395731
396091
396422
396741
397066
397406
397731
398051
398253
398729
398920
399391
399596
400068
400403
400602
401069
401382
401672
401962
402165
402510
402716
403032
403233
403535
403798
404044
404241
404675
404975
405280
405592
405895
406088
406558
406869
407178
407501
407695
408168
408364
408826
409044
409500
409697
410157
410355
410808
411115
411404
411713
412018
412218
412662
412860
413309
413519
413949
414259
414555
414848
415046
415454
415647
416064
416286
416663
416867
417274
417490
417859
418130
418401
418682
418973
419167
419606
419932
420242
420561
420873
421073
421520
421841
422036
422479
422793
422982
423416
423725
423922
424342
424645
424847
425269
425474
425893
426103
426524
426725
427139
427336
427750
428047
428337
428623
428823
429245
429448
429860
430162
430457
430758
430954
431378
431673
431973
432268
432462
432875
433069
433471
433760
433955
434331
434618
434887
435082
435455
435732
436008
436211
436550
436818
437022
437372
437600
437850
438130
438397
438592
438988
439283
439477
439930
440253
440446
440950
441304
441488
442005
442352
442697
443030
443365
443566
444060
444260
444740
444940
445421
445620
446083
446406
446731
447049
447362
447565
448030
448364
448556
449025
449225
449689
450004
450197
450664
450984
451302
451505
451967
452156
452619
452818
453298
453626
453961
454163
454640
454973
455304
455503
455985
456185
456657
456992
457189
457662
457861
458340
458680
458871
459351
459693
459889
460351
460684
460881
461344
461680
461877
462339
462543
462979
463172
463622
463934
464245
464571
464911
465107
465622
465828
466351
466579
467062
467265
467777
467965
468441
468640
469109
469312
469779
470105
470437
470628
471102
471300
471803
472136
472470
472800
473134
473328
473813
474156
474358
474844
475184
475530
475726
476194
476391
476873
477078
477555
477899
478237
478435
478910
479109
479595
479800
480270
480473
480954
481154
481624
481820
482288
482495
482945
483146
483585
483885
484182
484461
484749
485052
485346
485640
485963
486284
486598
486935
487276
487610
487955
488308
488658
489003
489201
489706
489911
490396
490591
491053
491271
491719
492034
492229
492661
492976
493172
493597
493800
494241
494536
494845
495160
495481
495813
496013
496479
496678
497152
497353
497820
498020
498495
498694
499159
499485
499680
500115
500322
500746
501049
501346
501539
501965
502166
502581
502891
503086
503535
503858
504053
504520
504720
505185
505386
505892
506094
506592
506947
507149
507635
507989
508186
508673
508883
509367
509710
509908
510387
510729
511059
511255
511733
511937
512420
512757
513085
513289
513763
513969
514459
514789
514992
515473
515816
516149
516473
516673
517164
517504
517856
518190
518518
518728
519200
519414
519891
520223
520428
520889
521212
521529
521729
522185
522384
522813
523131
523331
523755
523962
524403
524723
525045
525240
525732
525935
526408
526620
527079
527413
527611
528055
528380
528575
529013
529335
529530
529993
530318
530517
530976
531296
531496
531936
532134
532588
532792
533234
533546
533860
534183
534514
534710
535195
535405
535894
536093
536570
536784
537243
537471
537909
538111
538563
538772
539221
539534
539847
540154
540474
540798
541125
541469
541812
542148
542501
542849
543200
543556
543895
544250
544598
544930
545272
545617
545969
546162
546664
546872
547355
547570
548041
548256
548720
548930
549381
549709
549906
550355
550674
550991
551197
551629
551834
552252
552449
552825
553101
553295
553634
553905
554164
554420
554681
554944
555146
555481
555759
555956
556318
556526
556889
557162
557432
557641
558014
558235
558605
558894
559201
559404
559823
560139
560463
560664
561138
561491
561832
562168
562366
562882
563225
563560
563758
564248
564583
564922
565248
565583
565920
566226
566533
566733
567128
567332
567772
568081
568384
568598
569028
569229
569682
569994
570311
570513
570955
571155
571566
571853
572140
572339
572742
573028
573315
573597
573795
574180
574388
574780
575077
575366
575566
575963
576258
576557
576868
577173
577368
577852
578047
578543
578869
579066
579538
579873
580065
580566
580933
581135
581643
581850
582351
582713
582916
583424
583620
584143
584486
584819
585159
585491
585820
586017
586519
586721
587186
587536
587858
588167
588367
588815
589014
589466
589786
590087
590384
590707
590909
591375
591718
592046
592365
592687
593014
593334
593678
594018
594348
594692
595053
595400
595729
595940
596427
596760
596956
597435
597759
598078
598407
598738
599083
599289
599789
600139
600496
600838
601191
601387
601908
602118
602637
602978
603167
603674
604015
604357
604681
605004
605219
605693
606019
606215
606687
607017
607342
607660
607972
608288
608613
608934
609252
609601
609930
610245
610449
610922
611118
611588
611929
612258
612570
612764
613231
613437
613887
614103
614558
614893
615220
615432
615921
616270
616473
616975
617319
617521
618016
618365
618704
619049
619385
619720
620084
620429
620773
621134
621486
621825
622167
622519
622863
623191
623543
623889
624213
624544
624882
625223
625562
625904
626247
626573
626916
627258
627583
627924
628265
628597
628934
629275
629602
629933
630272
630615
630944
631276
631608
631934
632269
632603
632929
633129
633604
633806
634285
634632
634952
635266
635586
635901
636209
636518
636839
637156
637463
637791
638111
638427
638630
639097
639429
639755
640091
640425
640752
640958
641447
641789
642125
642476
642816
643155
643499
643853
644191
644522
644876
645225
645553
645754
646223
646554
646876
647194
647517
647833
648150
648475
648788
649125
649465
649785
