90
323
558
794
1014
1250
1485
1727
1963
2205
2444
2689
2932
3181
3432
3682
3931
4179
4424
4678
4929
5179
5422
5675
5925
6174
6414
6677
6923
7160
7402
7656
7901
8145
8373
8615
8857
9094
9330
9569
9813
10055
10294
10531
10783
11030
11275
11524
11774
12027
12277
12535
12790
13042
13291
13549
13801
14052
14298
14551
14801
15049
15301
15556
15807
16057
16307
16561
16816
17069
17316
17569
17822
18076
18331
18593
18854
19109
19355
19626
19881
20141
20397
20658
20902
21161
21416
21671
21909
22154
22402
22653
22898
23140
23377
23631
23876
24125
24372
24622
24872
25122
25372
25629
25875
26124
26371
26622
26867
27109
27356
27608
27854
28103
28357
28611
28864
29119
29375
29630
29885
30142
30400
30655
30898
31146
31398
31650
31901
32136
32383
32636
32885
33136
33391
33633
33884
34133
34389
34627
34869
35109
35358
35598
35838
36073
36311
36562
36805
37052
37304
37553
37797
38046
38298
38549
38801
39054
39319
39579
39837
40093
40356
40610
40869
41125
41388
41641
41900
42157
42416
42671
42927
43192
43449
43710
43964
44231
44498
44772
45039
45306
45571
45833
46099
46360
46618
46869
47131
47389
47641
47891
48154
48405
48655
48903
49158
49403
49656
49902
50154
50399
50643
50895
51148
51396
51639
51879
52134
52380
52625
52863
53110
53347
53593
53840
54091
54339
54582
54833
55090
55338
55590
55833
56080
56326
56574
56825
57079
57330
57582
57837
58106
58368
58632
58888
59157
59424
59694
59967
60233
60489
60747
61013
61271
61530
61780
62052
62318
62588
62857
63122
63382
63643
63909
64179
64450
64720
65003
65294
65594
65906
66224
66533
66858
67188
67499
67801
68103
68390
68670
68948
69223
69498
69766
70035
70301
70570
70833
71100
71356
71614
71874
72134
72390
72639
72893
73145
73398
73644
73901
74145
74391
74641
74896
75142
75391
75633
75889
76135
76388
76627
76874
77121
77367
77615
77869
78114
78362
78608
78868
79120
79376
79627
79888
80147
80405
80668
80927
81180
81435
81697
81951
82209
82459
82716
82965
83217
83471
83727
83974
84224
84472
84728
84979
85231
85476
85733
85986
86239
86498
86756
87008
87257
87516
87775
88032
88283
88543
88799
89056
89315
89578
89838
90102
90367
90635
90897
91163
91424
91689
91949
92208
92470
92734
92993
93249
93515
93780
94045
94307
94581
94844
95114
95385
95661
95926
96192
96461
96724
96988
97244
97503
97759
98022
98281
98543
98796
99053
99306
99575
99829
100084
100335
100594
100845
101094
101349
101601
101853
102114
102388
102669
102963
103253
103547
103831
104118
104403
104682
104953
105219
105499
105772
106043
106307
106586
106864
107141
107421
107699
107971
108242
108515
108777
109042
109302
109569
109835
110108
110384
110660
110933
111201
111484
111759
112027
112289
112557
112823
113087
113354
113610
113866
114121
114390
114641
114892
115142
115399
115647
115900
116146
116399
116643
116890
117136
117379
117620
117866
118101
118346
118580
118818
119063
119311
119550
119791
120027
120284
120532
120781
121026
121281
121534
121788
122048
122308
122566
122823
123088
123349
123612
123866
124130
124398
124666
124933
125200
125462
125727
125995
126261
126526
126787
127057
127319
127578
127845
128115
128377
128637
128903
129173
129431
129690
129948
130206
130461
130719
130978
131235
131490
131741
132000
132255
132510
132755
133006
133257
133505
133750
134003
134241
134486
134724
134974
135206
135441
135670
135915
136142
136380
136606
136840
137081
137308
137544
137774
138010
138238
138469
138690
138920
139149
139370
139591
139819
140055
140283
140500
140724
140958
141191
141421
141638
141869
142097
142331
142563
142798
143033
143258
143487
143726
143967
144201
144440
144663
144904
145140
145375
145614
145857
146097
146329
146571
146816
147060
147301
147533
147767
148013
148248
148490
148735
148981
149210
149458
149702
149953
150195
150436
150681
150930
151176
151430
151680
151934
152182
152429
152678
152931
153177
153421
153665
153916
154163
154407
154664
154923
155177
155429
155691
155952
156217
156475
156744
157000
157265
157537
157808
158075
158342
158619
158891
159164
159426
159699
159971
160243
160513
160781
161043
161305
161578
161846
162108
162363
162629
162889
163149
163413
163671
163925
164180
164437
164695
164947
165191
165438
165684
165935
166187
166440
166695
166944
167207
167483
167762
168044
168316
168600
168877
169155
169435
169714
169986
170259
170543
170817
171093
171368
171639
171915
172191
172466
172729
172998
173264
173538
173802
174060
174326
174590
174855
175118
175387
175645
175908
176172
176443
176705
176965
177225
177487
177748
178010
178273
178527
178787
179046
179311
179569
179826
180072
180331
180584
180837
181089
181337
181589
181835
182085
182343
182593
182836
183090
183348
183601
183851
184107
184365
184619
184876
185131
185390
185649
185911
186168
186429
186688
186950
187218
187486
187755
188020
188305
188578
188855
189131
189417
189697
189986
190282
190562
190839
191120
191405
191691
191966
192245
192522
192803
193092
193383
193665
193941
194231
194510
194788
195063
195340
195608
195878
196158
196427
196692
196957
197231
197499
197772
198050
198325
198605
198887
199171
199451
199731
200010
200287
200571
200845
201119
201390
201658
201938
202219
202486
202751
203031
203303
203576
203848
204120
204389
204666
204950
205223
205495
205777
206057
206334
206610
206886
207162
207435
207706
207988
208261
208532
208810
209089
209375
209663
209960
210248
210538
210834
211117
211404
211689
211971
212244
212517
212793
213062
213331
213604
213884
214152
214422
214699
214976
215254
215519
215802
216076
216345
216619
216894
217161
217421
217701
217974
218245
218503
218772
219035
219300
219567
219831
220093
220349
220608
220868
221125
221374
221620
221866
222117
222364
222616
222865
223104
223351
223602
223853
224098
224333
224579
224825
225064
225306
225544
225789
226028
226274
226521
226774
227023
227278
227528
227785
228041
228300
228563
228822
229074
229327
229588
229845
230101
230349
230608
230862
231119
231379
231644
231902
232164
232429
232695
232958
233226
233494
233758
234024
234288
234556
234827
235104
235373
235655
235929
236194
236464
236734
237002
237273
237547
237809
238077
238350
238616
238875
239134
239396
239655
239912
240176
240439
240702
240964
241221
241491
241748
242007
242260
242518
242777
243033
243296
243561
243820
244076
244346
244608
244867
245120
245385
245640
245897
246151
246403
246651
246898
247142
247380
247623
247863
248090
248323
248555
248789
249022
249266
249493
249727
249960
250207
250445
250685
250912
251160
251401
251642
251883
252131
252368
252613
252856
253107
253351
253595
253837
254088
254335
254586
254836
255093
255342
255597
255847
256105
256354
256609
256852
257112
257365
257618
257875
258139
258397
258654
258916
259183
259444
259702
259963
260223
260483
260743
261006
261267
261528
261787
262048
262303
262565
262815
263078
263335
263591
263849
264114
264375
264631
264894
265159
265422
265688
265959
266225
266490
266762
267035
267302
267571
267846
268122
268397
268668
268941
269214
269493
269770
270059
270335
270611
270895
271177
271456
271727
272009
272280
272556
272839
273116
273393
273677
273984
274277
274564
274853
275142
275433
275716
275998
276279
276556
276841
277111
277383
277646
277917
278184
278447
278718
278995
279269
279544
279829
280105
280386
280658
280934
281216
281501
281784
282057
282330
282606
282884
283155
283421
283693
283966
284237
284507
284777
285042
285306
285577
285849
286111
286374
286647
286914
287182
287454
287727
287994
288269
288544
288812
289086
289347
289620
289885
290150
290418
290703
290979
291252
291533
291800
292075
292340
292615
292881
293145
293411
293678
293941
294209
294488
294755
295033
295314
295602
295884
296167
296457
296742
297034
297320
297600
297880
298152
298433
298703
298965
299233
299503
299768
300025
300294
300559
300823
301082
301350
301607
301870
302136
302403
302665
302924
303184
303446
303705
303963
304219
304481
304750
305020
305297
305577
305854
306133
306427
306710
306999
307291
307575
307861
308153
308438
308713
308994
309283
309563
309853
310138
310432
310717
310999
311292
311582
311859
312140
312423
312697
312967
313250
313516
313780
314050
314321
314580
314842
315109
315373
315637
315900
316168
316428
316689
316953
317222
317484
317739
317999
318266
318531
318791
319051
319317
319580
319845
320117
320381
320645
320914
321188
321448
321711
321972
322230
322493
322759
323030
323290
323555
323816
324085
324345
324604
324856
325112
325366
325616
325870
326127
326374
326621
326872
327121
327368
327613
327860
328104
328343
328590
328838
329084
329327
329574
329827
330080
330336
330589
330848
331101
331361
331624
331895
332159
332422
332682
332953
333220
333484
333751
334016
334284
334557
334838
335101
335368
335643
335915
336182
336442
336710
336971
337239
337504
337774
338033
338297
338557
338820
339085
339346
339611
339873
340141
340409
340687
340954
341213
341475
341745
342007
342267
342527
342785
343045
343309
343576
343836
344105
344371
344651
344922
345196
345466
345741
346013
346294
346574
346849
347126
347404
347693
347971
348245
348521
348794
349060
349333
349610
349884
350167
350448
350727
350993
351260
351526
351791
352055
352316
352585
352846
353109
353364
353631
353889
354143
354396
354654
354905
355157
355413
355669
355920
356171
356430
356684
356941
357192
357455
357712
357977
358244
358516
358791
359069
359357
359644
359945
360223
360515
360804
361090
361378
361656
361937
362225
362518
362800
363075
363360
363641
363922
364203
364476
364758
365040
365334
365626
365911
366195
366479
366761
367037
367320
367594
367868
368142
368414
368684
368951
369229
369501
369759
370031
370301
370562
370823
371083
371344
371601
371855
372118
372368
372617
372873
373127
373377
373629
373873
374126
374374
374627
374871
375128
375379
375628
375883
376144
376399
376655
376914
377176
377431
377690
377956
378217
378476
378743
379017
379282
379548
379809
380080
380346
380617
380882
381142
381406
381669
381942
382203
382465
382725
382999
383264
383525
383786
384049
384315
384581
384849
385113
385382
385648
385921
386182
386451
386715
386984
387254
387520
387793
388065
388334
388597
388865
389132
389395
389652
389915
390170
390426
390687
390952
391206
391462
391722
391985
392246
392504
392758
393012
393265
393518
393774
394026
394274
394524
394784
395041
395299
395545
395810
396065
396328
396598
396871
397139
397409
397692
397967
398242
398515
398798
399073
399353
399638
399916
400193
400463
400747
401025
401305
401576
401850
402127
402403
402689
402965
403235
403517
403802
404095
404383
404683
404981
405283
405590
405877
406159
406445
406725
406996
407260
407533
407797
408068
408337
408603
408869
409130
409401
409674
409942
410203
410477
410750
411024
411308
411592
411870
412144
412425
412699
412972
413241
413509
413775
414048
414320
414589
414856
415123
415396
415662
415932
416199
416471
416744
417025
417313
417599
417878
418165
418458
418742
419017
419305
419588
419874
420161
420449
420736
421021
421307
421592
421877
422156
422436
422720
423001
423291
423583
423873
424185
424481
424768
425051
425343
425636
425929
426228
426510
426788
427093
427399
427705
427994
428285
428572
428853
429136
429419
429702
429984
430271
430556
430828
431112
431393
431679
431959
432243
432523
432801
433080
433350
433621
433882
434144
434406
434670
434934
435195
435450
435707
435966
436224
436478
436731
436987
437246
437500
437753
438016
438272
438532
438789
439061
439322
439590
439851
440123
440392
440663
440935
441199
441468
441733
442007
442275
442544
442810
443074
443342
443609
443886
444153
444423
444690
444966
445237
445504
445785
446061
446335
446617
446910
447192
447474
447773
448059
448354
448645
448943
449233
449525
449828
450124
450422
450721
451006
451285
451558
451835
452106
452379
452662
452936
453201
453470
453742
454010
454274
454536
454794
455055
455320
455585
455842
456104
456367
456639
456902
457170
457439
457714
457987
458267
458550
458827
459096
459364
459639
459910
460174
460442
460711
460975
461250
461526
461790
462065
462345
462627
462915
463197
463479
463745
464018
464289
464559
464822
465085
465353
465615
465875
466133
466401
466658
466915
467175
467444
467704
467963
468226
468494
468757
469018
469278
469535
469796
470058
470325
470582
470847
471109
471379
471637
471902
472159
472421
472679
472938
473202
473464
473720
473975
474240
474502
474764
475019
475282
475540
475803
476070
476342
476601
476864
477131
477398
477663
477925
478188
478450
478713
478976
479243
479503
479762
480019
480294
480553
480811
481066
481324
481580
481835
482094
482348
482595
482848
483105
483355
483606
483847
484098
484342
484591
484834
485080
485323
485565
485803
486045
486283
486527
486758
486998
487232
487473
487711
487955
488195
488422
488660
488904
489143
489375
489602
489838
490074
490305
490539
490770
491016
491249
491489
491727
491974
492211
492457
492692
492939
493183
493431
493680
493935
494187
494444
494702
494963
495226
495485
495752
496014
496278
496545
496819
497082
497347
497614
497882
498150
498416
498688
498953
499229
499507
499785
500058
500333
500618
500894
501167
501432
501707
501973
502232
502496
502764
503024
503281
503542
503805
504064
504320
504585
504838
505095
505359
505621
505877
506130
506381
506639
506889
507145
507397
507659
507919
508184
508453
508728
508994
509257
509531
509797
510062
510321
510591
510851
511114
511381
511650
511917
512188
512469
512743
513019
513288
513563
513831
514103
514375
514647
514917
515183
515460
515727
515994
516256
516532
516803
517071
517344
517619
517887
518152
518431
518700
518977
519255
519530
519809
520092
520378
520657
520929
521194
521467
521731
521994
522250
522509
522759
523013
523269
523522
523764
524011
524262
524508
524750
524997
525247
525496
525741
525992
526249
526500
526752
527002
527261
527511
527772
528023
528288
528550
528811
529076
529346
529610
529872
530143
530412
530678
530939
531212
531471
531735
532004
532275
532538
532804
533075
533341
533611
533876
534149
534411
534677
534942
535216
535485
535746
536022
536297
536580
536849
537129
537404
537677
537955
538224
538493
538760
539031
539296
539565
539832
540092
540356
540623
540889
541144
541402
541659
541925
542182
542442
542695
542954
543216
543475
543739
544004
544268
544525
544795
545055
545317
545569
545832
546085
546341
546600
546864
547117
547376
547636
547894
548154
548410
548665
548917
549168
549423
549678
549933
550189
550442
550708
550974
551239
551499
551766
552035
552306
552595
552876
553152
553435
553724
554001
554285
554563
554846
555128
555414
555700
555975
556251
556527
556811
557088
557360
557645
557929
558217
558498
558777
559061
559353
559668
559976
560276
560586
560874
561165
561462
561749
562030
562310
562599
562890
563186
563481
563775
564073
564365
564654
564936
565210
565493
565767
566045
566318
566590
566850
567116
567387
567650
567910
568168
568439
568701
568966
569221
569480
569742
570005
570271
570533
570798
571066
571338
571600
571862
572116
572382
572638
572893
573154
573417
573672
573926
574186
574443
574696
574946
575199
575445
575690
575939
576189
576431
576674
576916
577165
577410
577657
577895
578140
578386
578630
578875
579124
579376
579629
579884
580151
580409
580666
580924
581189
581442
581697
581958
582218
582472
582727
582985
583240
583493
583744
583998
584241
584490
584738
584990
585235
585481
585725
585978
586225
586474
586709
586965
587212
587462
587709
587964
588212
588460
588709
588966
589213
589465
589710
589963
590208
590455
590705
590958
591208
591459
591711
591972
592229
592485
592734
592987
593240
593488
593742
593994
594240
594486
594738
594989
595237
595479
595729
595977
596220
596468
596720
596967
597212
597461
597712
597963
598215
598461
598714
598966
599222
599482
599745
600010
600269
600528
600797
601056
601315
601566
601825
602075
602325
602579
602837
603083
603338
603596
603856
604117
604375
604635
604892
605149
605405
605664
605919
606179
606434
606702
606964
607230
607495
607772
608039
608311
608595
608866
609135
609404
609678
609943
610206
610468
610727
610990
611268
611567
611868
612166
612471
612769
613059
613341
613631
613924
614203
614490
614775
615056
615339
615621
615904
616174
616452
616718
616986
617261
617532
617795
618056
618328
618590
618856
619108
619372
619631
619891
620155
620411
620669
620922
621185
621447
621708
621955
622217
622471
622726
622981
623238
623488
623736
623992
624250
624499
624752
625003
625260
625518
625785
626053
626320
626587
626857
627139
627406
627676
627944
628214
628482
628750
629023
629293
629561
629825
630096
630358
630618
630875
631140
631394
631646
631904
632162
632411
632664
632918
633176
633430
633682
633938
634190
634442
634698
634954
635206
635456
635699
635956
636204
636454
636693
636944
637193
637444
637696
637956
638205
638456
638709
638971
639223
639477
639721
639974
640222
640471
640720
640966
641210
641455
641701
641954
642201
642448
642693
642948
643201
643453
643711
643973
644231
644488
644755
645014
645270
645523
645786
646043
646297
646551
646814
647067
647325
647583
647845
648098
648355
648605
648866
649122
649378
649639
649901
