216
488
685
965
1141
1433
1605
1883
2066
2331
2502
2785
2982
3301
3480
3738
3975
4201
4417
4646
4881
5135
5381
5606
5821
6088
6280
6547
6713
7078
7256
7460
7900
8070
8394
8573
8725
9170
9377
9711
9963
10197
10437
10674
10901
11132
11362
11617
11858
12159
12359
12721
12896
13053
13523
13728
14101
14360
14546
14903
15080
15411
15591
15929
16196
16390
16695
16874
17164
17332
17667
17853
18200
18379
18697
18940
19136
19433
19604
19915
20093
20432
20635
20954
21117
21390
21570
21873
22052
22389
22646
22880
23123
23348
23602
23857
24098
24341
24596
24825
25103
25309
25628
25791
25995
26388
26589
26919
27104
27475
27648
28018
28201
28560
28741
29109
29307
29662
29897
30125
30286
30597
30783
31129
31318
31615
31788
32095
32282
32599
32764
33100
33367
33638
33909
34158
34408
34661
34946
35234
35531
35884
36082
36446
36624
36994
37179
37557
37783
38128
38313
38636
38808
39130
39314
39485
39801
40201
40373
40689
40883
41165
41350
41733
41927
42278
42542
42737
43033
43206
43515
43715
44064
44255
44569
44750
45060
45242
45569
45752
46086
46265
46609
46836
47033
47353
47538
47857
48037
48375
48710
49017
49274
49553
49834
50113
50385
50660
50927
51197
51461
51708
51953
52200
52485
52785
53063
53300
53541
53789
54036
54289
54556
54824
55070
55329
55603
55845
56080
56322
56571
56820
57097
57375
57618
57858
58096
58352
58608
58879
59141
59401
59649
59904
60161
60403
60647
60883
61148
61437
61707
61946
62181
62425
62673
62921
63181
63445
63635
63860
64209
64391
64628
64937
65110
65442
65635
65989
66172
66480
66645
66954
67153
67472
67666
67998
68188
68515
68700
69036
69210
69532
69747
70101
70302
70618
70794
71087
71258
71577
71812
72110
72314
72613
72799
73126
73303
73600
73782
74095
74279
74597
74854
75085
75316
75517
75784
76058
76333
76583
76841
77100
77345
77567
77856
78038
78374
78560
78948
79130
79450
79653
79936
80176
80439
80681
80973
81168
81459
81645
81963
82140
82429
82608
82764
83182
83368
83667
83910
84126
84353
84596
84846
85099
85323
85548
85791
85982
86230
86475
86695
86927
87163
87341
87667
87845
88136
88357
88572
88801
89039
89286
89550
89785
90010
90229
90464
90705
90941
91173
91408
91665
91899
92140
92385
92577
92835
93034
93289
93504
93820
94039
94294
94518
94737
94967
95197
95398
95677
95914
96154
96356
96639
96812
97074
97291
97513
97735
97984
98234
98471
98656
98902
99124
99362
99593
99834
100000
100289
100529
100749
100945
101214
101381
101649
101860
102084
102354
102594
102826
103034
103239
103452
103660
103880
104089
104337
104527
104788
105016
105253
105468
105682
105857
106087
106263
106529
106773
107017
107237
107454
107658
107869
108095
108323
108526
108781
109015
109247
109458
109683
109872
110123
110335
110542
110720
111001
111217
111483
111699
111903
112102
112306
112510
112738
112967
113212
113397
113638
113828
114094
114282
114522
114719
114934
115151
115375
115614
115841
116034
116263
116433
116663
116854
117122
117308
117580
117806
118018
118207
118445
118617
118882
119098
119326
119539
119786
120009
120254
120440
120674
120879
121098
121281
121548
121751
122043
122269
122486
122698
122943
123121
123392
123612
123839
124078
124323
124533
124789
124970
125222
125442
125684
125924
126170
126411
126641
126862
127077
127270
127542
127729
128009
128196
128490
128741
128983
129214
129417
129636
129871
130087
130340
130585
130843
131036
131285
131459
131754
131989
132236
132469
132705
132930
133096
133420
133613
133879
134111
134337
134599
134884
135132
135362
135584
135820
136034
136272
136521
136763
137015
137245
137480
137726
137950
138173
138394
138626
138870
139124
139383
139637
139878
140105
140332
140585
140803
141084
141243
141571
141768
142045
142221
142534
142734
142969
143154
143636
143831
143988
144408
144595
144927
145204
145484
145760
146011
146268
146441
146757
146935
147216
147395
147712
147912
148219
148475
148711
148925
149156
149407
149647
149901
150128
150373
150611
150850
151096
151345
151595
151846
152117
152400
152663
152921
153151
153339
153614
153819
154261
154453
154799
155005
155315
155499
155822
155992
156317
156514
156838
157018
157322
157507
157777
157956
158294
158489
158812
158985
159270
159452
159753
159922
160251
160514
160720
160920
161381
161556
161902
162159
162414
162691
162971
163235
163487
163720
163923
164222
164405
164731
164910
165246
165430
165752
165931
166243
166488
166729
167003
167286
167556
167741
168030
168218
168499
168684
169009
169193
169388
169730
169910
170275
170528
170755
171001
171267
171533
171815
172055
172343
172520
172858
173055
173435
173641
174028
174221
174598
174784
175151
175351
175698
175910
176300
176574
176801
177032
177272
177513
177774
178046
178265
178525
178761
178972
179258
179495
179741
179954
180257
180442
180767
180964
181259
181426
181721
181921
182273
182477
182787
183036
183216
183508
183698
184005
184201
184524
184723
185050
185230
185500
185739
185976
186212
186481
186771
186984
187278
187437
187827
188017
188367
188547
188879
189231
189521
189811
190081
190337
190621
190942
191237
191506
191772
192038
192299
192569
192852
193125
193381
193645
193920
194169
194419
194661
194918
195179
195469
195753
196002
196245
196486
196757
197026
197299
197545
197794
198044
198289
198538
198794
199039
199289
199566
199869
200131
200383
200625
200864
201098
201360
201653
201919
202181
202438
202652
202959
203149
203463
203654
203980
204184
204517
204735
205012
205180
205478
205683
206016
206221
206513
206691
206978
207159
207457
207648
207889
208194
208406
208732
208915
209213
209384
209654
209837
210163
210364
210704
210886
211174
211354
211667
211852
212177
212392
212661
212865
213204
213387
213716
213899
214194
214396
214782
215019
215325
215509
215806
215977
216299
216558
216815
217135
217287
217466
217896
218085
218379
218630
218882
219158
219371
219685
219870
219952
220141
220308
220639
220848
221177
221361
221665
221855
222151
222393
222638
222870
223130
223380
223653
223913
224154
224381
224614
224851
225105
225384
225660
225895
226161
226349
226681
226856
227020
227198
227616
227840
228234
228430
228744
228977
229208
229466
229741
230013
230245
230480
230721
230901
231170
231358
231666
231882
232157
232371
232655
232891
233123
233310
233554
233748
234034
234237
234433
234779
234974
235219
235449
235697
235904
236195
236378
236663
236893
237122
237315
237585
237772
238022
238257
238515
238725
238900
239232
239455
239672
239848
240121
240313
240613
240857
241078
241261
241539
241771
241983
242163
242436
242686
242920
243124
243402
243578
243850
244056
244278
244479
244780
244980
245262
245489
245720
245891
246133
246317
246607
246855
247081
247293
247587
247775
248043
248247
248454
248646
248904
249102
249414
249648
249872
250083
250308
250544
250764
250978
251222
251421
251705
251879
252148
252387
252606
252830
253036
253265
253506
253787
254030
254250
254468
254688
254872
255129
255351
255629
255828
256095
256289
256575
256815
257052
257234
257493
257678
257974
258196
258491
258718
258943
259113
259388
259583
259908
260179
260414
260627
260878
261063
261345
261535
261831
262071
262324
262569
262842
263036
263302
263471
263762
264002
264264
264534
264777
265013
265237
265480
265731
265976
266206
266460
266721
266893
267213
267412
267705
267905
268169
268397
268704
268910
269238
269415
269714
269881
270188
270386
270734
270995
271242
271507
271760
271978
272207
272439
272685
272925
273189
273457
273690
273923
274140
274380
274642
274904
275168
275422
275673
275901
276144
276396
276634
276878
277094
277388
277680
277926
278191
278425
278640
278890
279160
279432
279713
279970
280215
280474
280679
280990
281189
281484
281711
281986
282255
282510
282738
282959
283166
283434
283681
283966
284155
284438
284615
284896
285083
285389
285570
285899
286154
286416
286632
286915
287092
287360
287535
287836
288039
288380
288607
288869
289037
289317
289506
289668
290072
290264
290562
290802
291037
291271
291505
291725
291954
292166
292442
292669
292961
293139
293399
293623
293836
294027
294309
294516
294811
295034
295256
295492
295728
295950
296172
296397
296632
296874
297122
297331
297598
297782
298024
298233
298465
298693
298979
299228
299443
299657
299874
300089
300308
300544
300758
300987
301210
301408
301693
301914
302136
302304
302537
302754
302967
303178
303442
303667
303884
304062
304279
304496
304727
304916
305162
305377
305595
305799
306019
306231
306451
306651
306855
307052
307264
307498
307742
307961
308180
308375
308564
308765
308958
309168
309397
309626
309857
310067
310271
310490
310717
310920
311133
311326
311533
311761
311975
312209
312438
312646
312853
313048
313241
313457
313696
313923
314165
314372
314582
314804
314997
315210
315427
315621
315858
316075
316299
316539
316780
316992
317209
317406
317602
317819
318033
318271
318524
318759
318983
319182
319388
319609
319832
320053
320281
320504
320720
320941
321167
321380
321604
321808
322020
322218
322449
322672
322957
323178
323393
323605
323813
323982
324234
324469
324702
324933
325156
325382
325613
325841
326056
326265
326473
326691
326915
327157
327389
327633
327847
328064
328264
328486
328736
328945
329208
329394
329662
329887
330101
330324
330563
330750
331022
331250
331503
331720
332003
332209
332422
332598
332872
333093
333337
333602
333838
334045
334268
334451
334736
334958
335194
335426
335671
335922
336145
336391
336628
336835
337074
337257
337530
337745
338072
338276
338555
338777
339008
339229
339472
339740
339990
340243
340428
340608
340958
341138
341428
341649
341878
342123
342314
342623
342829
343083
343295
343513
343762
344018
344274
344522
344746
344996
345184
345452
345635
345927
346113
346403
346603
346935
347116
347407
347591
347847
348036
348330
348528
348843
349026
349319
349491
349771
349964
350257
350458
350724
350924
351203
351401
351693
351880
352156
352326
352623
352908
353182
353442
353660
353884
354110
354293
354585
354795
355093
355294
355601
355794
356116
356366
356557
356828
357047
357366
357567
357948
358119
358420
358595
358911
359186
359468
359712
359948
360163
360400
360599
360888
361071
361225
361611
361814
362144
362334
362595
362757
363044
363229
363531
363731
364070
364253
364528
364696
365004
365199
365502
365681
365987
366188
366478
366661
366963
367135
367405
367573
367907
368129
368451
368634
368920
369097
369368
369552
369877
370076
370402
370580
370897
371096
371402
371582
371883
372067
372405
372606
372931
373128
373272
373706
373899
374354
374587
374916
375169
375413
375663
375883
376160
376431
376681
376953
377245
377494
377742
377981
378235
378494
378789
379040
379323
379702
379894
380295
380481
380916
381114
381525
381719
382089
382301
382621
382800
383169
383443
383763
383947
384244
384432
384749
384941
385315
385509
385686
386083
386283
386609
386799
387114
387302
387637
387838
388176
388361
388661
388829
389162
389377
389742
389937
390259
390449
390763
390942
391286
391476
391829
392022
392399
392594
392925
393097
393434
393649
393998
394226
394572
394758
394914
395354
395553
395931
396120
396324
396463
396571
396905
397084
397522
397711
398083
398317
398643
399039
399216
399576
399752
400144
400366
400773
400981
401311
401546
401840
402024
402348
402549
402726
403149
403352
403660
403839
404125
404325
404686
404897
405215
405461
405656
405930
406124
406429
406613
406896
407076
407451
407648
407974
408144
408325
408539
408952
409151
409507
409698
409997
410172
410502
410685
411031
411220
411548
411737
412042
412231
412539
412722
413027
413230
413610
413802
413981
414364
414533
414843
415106
415385
415656
415894
416154
416414
416681
416877
417133
417339
417497
417974
418172
418568
418775
419057
419272
419610
419897
420120
420417
420607
420899
421080
421393
421595
421933
422125
422464
422671
422878
423246
423421
423745
423942
424281
424489
424825
425018
425301
425481
425829
426030
426215
426624
426816
427125
427323
427633
427805
428095
428285
428622
428844
429170
429355
429612
429786
430117
430318
430685
430875
431197
431380
431558
431943
432132
432420
432613
432914
433106
433451
433651
433952
434136
434427
434628
434993
435212
435525
435709
436005
436183
436481
436689
436998
437194
437498
437703
438002
438193
438463
438644
438939
439128
439457
439673
439986
440173
440451
440637
440943
441138
441478
441673
442007
442193
442471
442668
442992
443178
443466
443677
444041
444235
444526
444710
444988
445157
445474
445687
446007
446209
446499
446682
446986
447170
447477
447663
447970
448158
448465
448661
448953
449136
449401
449583
449919
450132
450456
450633
450900
451096
451390
451570
451886
452077
452384
452571
452892
453090
453381
453540
453827
454026
454300
454504
454879
455060
455367
455541
455869
456067
456406
456598
456926
457124
457425
457611
457937
458119
458408
458599
458995
459204
459549
459716
459991
460182
460342
460794
461006
461358
461623
461879
462149
462393
462593
462882
463082
463397
463596
463790
464137
464317
464588
464777
465102
465306
465629
465810
466081
466272
466533
466720
467031
467222
467529
467718
468021
468224
468517
468703
468971
469156
469453
469671
470010
470196
470486
470654
470925
471126
471458
471672
471975
472158
472455
472643
472931
473121
473413
473598
473907
474122
474421
474619
474935
475106
475434
475708
475988
476277
476541
476741
477005
477239
477550
477751
478069
478266
478556
478758
479119
479303
479613
479801
479989
480411
480633
480985
481198
481476
481649
481976
482184
482485
482693
483087
483283
483632
483825
484112
484294
484606
484817
485148
485342
485628
485795
486099
486297
486629
486839
487123
487310
487628
487812
488120
488363
488581
488845
489100
489380
489641
489891
490071
490336
490546
490842
491044
491365
491556
491875
492055
492383
492574
492874
493054
493364
493570
493849
494040
494347
494523
494778
494958
495286
495500
495815
496002
496274
496452
496723
496921
497220
497418
497738
497936
498088
498474
498657
498951
499125
499400
499599
499922
500131
500447
500625
500904
501080
501344
501564
501933
502139
502434
502628
502890
503080
503384
503570
503880
504067
504376
504596
504901
505090
505335
505514
505825
506019
506353
506574
506855
507035
507307
507498
507687
508041
508234
508535
508742
509009
509199
509491
509718
509948
510163
510407
510687
510948
511200
511414
511630
511858
512051
512215
512573
512765
513067
513249
513525
513729
514023
514213
514482
514671
514970
515166
515474
515676
515936
516106
516368
516571
516895
517097
517404
517604
517888
518055
518343
518540
518840
519041
519341
519549
519869
520057
520347
520519
520788
520984
521300
521508
521849
522031
522311
522488
522794
522989
523311
523508
523816
524014
524290
524481
524795
524971
525265
525449
525767
525989
526299
526483
526741
526918
527195
527389
527695
527912
528215
528392
528678
528881
529157
529347
529619
529817
530110
530292
530596
530800
531067
531244
531497
531686
532005
532205
532525
532704
532904
533195
533427
533629
533912
534157
534389
534625
534896
535150
535386
535600
535832
536076
536317
536584
536858
537061
537318
537495
537810
538006
538199
538435
538840
539032
539327
539555
539818
540008
540293
540468
540780
540996
541326
541518
541798
541970
542265
542436
542771
543069
543338
543586
543795
544063
544338
544602
544843
545106
545336
545655
545848
546236
546418
546735
547021
547317
547594
547846
548093
548298
548531
548877
549122
549282
549743
549929
550324
550593
550753
551104
551293
551666
551954
552166
552473
552650
552931
553129
553319
553734
553921
554239
554443
554710
554894
555245
555422
555740
555944
556310
556517
556844
557010
557304
557500
557856
558058
558429
558674
558854
559178
559384
559697
559898
560227
560496
560693
561076
561273
561636
561816
562184
562527
562837
563115
563376
563647
563903
564175
564476
564767
565029
565290
565517
565875
566069
566429
566630
567029
567256
567603
567816
567947
568395
568623
568965
569252
569505
569759
569993
570239
570500
570755
570969
571239
571442
571790
571974
572260
572483
572746
572939
573267
573482
573868
574038
574383
574576
574944
575225
575499
575785
576035
576290
576549
576783
577016
577229
577536
577778
578212
578384
578740
578913
579265
579514
579837
580105
580357
580629
580855
581132
581405
581681
581958
582246
582532
582733
583083
583253
583667
583878
584304
584584
584768
585106
585318
585679
585970
586254
586526
586768
586962
587349
587511
587838
588033
588386
588600
588917
589185
589411
589660
589902
590186
590458
590722
590948
591297
591492
591858
592034
592397
592595
593004
593290
593543
593763
594014
594247
594511
594799
595039
595325
595553
595796
596062
596307
596531
596883
597090
597480
597674
598040
598249
598559
598865
599193
599493
599717
599991
600188
600454
600646
601063
601262
601667
601954
602240
602451
602726
602925
603346
603543
603939
604225
604403
604579
604961
605179
605561
605874
606139
606362
606655
606853
607289
607481
607874
608177
608473
608732
608969
609169
609510
609701
610116
610319
610685
610944
611224
611508
611800
612078
612363
612637
612904
613161
613403
613651
613890
614115
614422
614644
615032
615209
615545
615799
616039
616353
616633
616817
617128
617353
617647
617907
618246
618633
618843
619183
619438
619675
619885
620139
620423
620693
620982
621198
621474
621730
621994
622259
622522
622749
623102
623308
623709
623898
624236
624503
624777
625017
625361
625572
625940
626107
626474
626681
627067
627352
627627
627858
628159
628364
628678
628872
629172
629374
629776
629972
630288
630467
630763
630939
631270
631559
631804
632070
632306
632555
632816
633052
633314
633586
633871
634141
634371
634734
634917
635280
635585
635908
636211
636479
636704
636995
637185
637550
637748
638126
638338
638679
638954
639202
639434
639681
639922
640214
640454
640807
640989
641291
641468
641837
642069
642421
642691
642947
643198
643457
643712
643966
644209
644466
644746
645027
645279
645523
645742
645988
646200
646510
646800
647076
647293
647545
647723
648092
648357
648629
648900
649163
649408
649664
649930
