156
411
683
903
1186
1420
1619
1963
2234
2493
2719
2952
3195
3468
3795
4107
4351
4588
4846
4986
5218
5474
5685
5917
6101
6388
6633
6834
7067
7320
7611
7818
8069
8300
8513
8663
8919
9114
9347
9641
10005
10265
10519
10768
11041
11298
11472
11798
12005
12251
12452
12688
12926
13219
13548
13799
14019
14346
14614
14864
15010
15239
15468
15689
15892
16149
16406
16566
16811
17040
17270
17423
17773
17955
18258
18426
18679
18923
19071
19298
19590
19823
20048
20269
20582
20904
21165
21405
21558
21742
21961
22293
22596
22752
22912
23149
23501
23655
23870
24188
24394
24639
24869
25117
25357
25622
25854
26136
26360
26608
26802
27040
27256
27442
27595
27877
28126
28375
28616
28914
29151
29441
29710
29936
30170
30311
30575
30778
31021
31303
31717
32028
32256
32427
32626
32859
33174
33360
33647
33892
34201
34348
34622
34870
35015
35220
35372
35620
35919
36254
36487
36681
37032
37198
37337
37582
37823
38072
38315
38581
38863
39159
39448
39780
40078
40303
40604
40809
41038
41258
41519
41693
41923
42166
42413
42564
42695
43020
43238
43472
43613
43932
44331
44648
44917
45199
45406
45593
45768
45984
46196
46459
46750
47001
47282
47498
47747
47950
48195
48414
48664
48916
49135
49374
49558
49702
50078
50330
50639
50926
51249
51499
51684
51910
52140
52404
52663
52909
53235
53450
53616
53844
54082
54405
54656
54884
55110
55258
55518
55677
56042
56243
56446
56689
56949
57162
57318
57730
58032
58260
58449
58573
58806
59081
59330
59590
59847
60078
60334
60585
60894
61142
61393
61626
61856
62072
62313
62462
62700
62920
63165
63344
63615
63828
64082
64306
64520
64687
64925
65118
65333
65630
65947
66195
66631
66806
67038
67250
67520
67771
68007
68296
68569
68944
69175
69475
69652
69885
70170
70393
70535
70665
71066
71277
71476
71814
72050
72200
72482
72727
72965
73251
73524
73719
74048
74477
74699
74972
75200
75425
75708
75941
76074
76214
76434
76738
76967
77324
77515
77731
77947
78094
78338
78491
78715
78952
79184
79428
79660
79877
80246
80552
80839
81114
81388
81675
81926
82164
82413
82735
83032
83305
83614
83845
84151
84451
84719
84925
85116
85323
85576
85839
86001
86217
86388
86610
86863
87109
87355
87541
87765
87990
88203
88358
88586
88723
89005
89270
89495
89771
90048
90335
90608
90838
91043
91281
91516
91752
92020
92390
92589
92822
93046
93240
93372
93603
93956
94148
94390
94644
94873
95112
95243
95598
95832
96163
96465
96741
96901
97119
97348
97565
97803
98210
98516
98723
99011
99338
99610
99895
100141
100413
100734
101064
101322
101519
101751
102046
102305
102525
102661
102906
103188
103435
103658
103877
104111
104333
104596
104955
105268
105484
105824
106048
106179
106431
106634
106945
107298
107642
107972
108170
108442
108683
108937
109182
109459
109608
109830
110137
110321
110557
110779
111098
111378
111632
111890
112120
112442
112677
113108
113368
113519
113771
114075
114388
114684
114898
115120
115394
115576
115844
116058
116291
116530
116702
116888
117147
117303
117474
117899
118141
118299
118543
118727
118969
119272
119524
119871
120424
120668
120915
121140
121432
121692
121926
122201
122425
122632
122843
123240
123548
123793
124036
124256
124502
124736
124879
125143
125415
125774
126010
126206
126470
126762
126965
127241
127458
127670
127958
128181
128406
128547
128792
129059
129252
129521
129756
130089
130404
130575
130829
130986
131215
131529
131791
132002
132236
132556
132812
133159
133425
133787
134057
134362
134603
134840
135088
135352
135606
135868
136089
137426
138165
138698
139290
139688
140251
140742
141439
141958
142433
142886
143135
143371
143821
144320
144744
145125
145573
146014
146445
146860
147272
147688
148131
148594
149025
149466
149921
150411
150894
151346
151783
152227
152702
153145
153570
153929
154250
154952
155174
155632
156283
156748
157171
157447
157874
158072
158563
159281
159949
160606
161290
161714
162368
162808
163291
163787
164233
164700
165156
165515
165875
166313
166973
167423
167880
168321
168505
168987
169428
169798
170142
170577
171035
171498
171888
172061
172196
172461
172751
173004
173185
173365
173542
173695
173879
174135
174556
174739
174972
175166
175353
175543
175764
176065
176255
176521
176793
177055
177210
177424
177608
177866
178139
178300
178501
178801
179021
179170
179433
179613
179866
180063
180279
180451
180617
180756
180960
181175
181438
181574
181714
181930
182160
182590
182932
183240
183685
183890
184026
184278
184428
184598
184752
185328
186036
186375
187099
187321
187982
188181
188574
189063
189396
189596
190002
190667
191368
192064
192713
193399
194090
194739
195419
196135
196799
197206
197551
197812
198353
199032
199455
199768
200327
200756
201067
201582
202005
202377
202849
203261
203613
204085
204537
204890
205366
205773
206140
206640
207085
207436
207891
208315
208522
209040
209462
209800
210143
210581
210934
211221
211765
212196
212653
212995
213274
213801
214228
214660
214998
215292
215819
216240
216667
217016
217308
217867
218320
218748
219081
219658
220094
220409
220922
221337
221715
222186
222603
222932
223451
223912
224365
224802
225251
225701
226168
226618
227025
227445
227894
228328
228662
229165
229360
229815
230261
230707
231050
231543
231984
232314
232856
233282
233621
234097
234545
234918
235388
235804
236153
236396
236943
237387
237797
238141
238658
239113
239456
239949
240348
240720
241189
241635
241969
242446
242872
243250
243728
244157
244488
244987
245434
245805
246255
246664
247011
247493
247936
248283
248716
249129
249475
249948
250387
250707
251213
251645
251994
252515
252924
253250
253756
254174
254554
255016
255441
255770
256331
256764
257088
257582
258013
258362
258837
259258
259572
260031
260477
260815
261286
261708
262024
262532
262979
263304
263801
264210
264551
265067
265492
265813
266266
266455
266919
267357
267704
268140
268313
268798
269234
269666
270004
270493
270920
271251
271755
271941
272387
272792
273217
273571
274046
274230
274687
275104
275563
275893
276439
276867
277543
277993
278435
278740
279245
279689
279884
280380
280810
281231
281506
281925
282389
282699
282877
283243
283678
283884
284378
284818
285248
285560
286097
286556
286996
287294
287832
288254
288688
289063
289537
289948
290381
290754
291013
291527
291950
292373
292720
293238
293658
293988
294467
294903
295243
295729
296153
296461
296958
297408
297741
298235
298653
298985
299525
299969
300296
300780
301204
301565
302038
302444
302787
303230
303669
304028
304482
304886
305231
305740
306166
306522
306991
307404
307744
308256
308674
309005
309452
309888
310233
310713
311127
311455
311912
312358
312706
313188
313609
313931
314416
314848
315191
315628
316045
316369
316873
317299
317615
318114
318543
318878
319417
319818
320126
320622
321059
321392
321875
322284
322606
323107
323550
323874
324356
324779
325112
325607
326045
326338
326809
327235
327588
328044
328469
328738
329267
329717
330152
330448
330965
331400
331840
332162
332692
333096
333495
333836
334356
334765
335154
335493
335985
336428
336845
337166
337663
338119
338574
338867
339046
339405
339835
340276
340593
341144
341547
341951
342293
342804
343223
343643
343964
344464
344907
345345
345652
346153
346589
347017
347359
347847
348263
348678
349042
349560
349989
350389
350746
351241
351680
352030
352460
352653
353127
353570
353918
354407
354830
355143
355661
356072
356444
356837
357270
357624
358102
358298
358741
359135
359502
359959
360395
360713
361173
361602
361980
362155
362653
363044
363398
363809
364216
364619
364990
365376
365759
366177
366553
367001
367392
367766
368220
368648
369043
369469
369876
370276
370723
371152
371530
371941
372354
372760
373183
373617
373963
374173
374661
375110
375538
375887
376330
376764
377100
377585
378019
378346
378793
379255
379601
380078
380487
380838
381276
381712
382098
382488
382901
383256
383744
384165
384530
384956
385387
385746
386246
386654
387005
387224
387726
388174
388598
388956
389406
389852
390219
390676
391063
391436
391843
392037
392172
392542
392957
393301
393760
394209
394572
395068
395483
395831
396657
396839
397299
397649
397818
398274
398478
398891
399339
399698
400061
400405
400592
400751
401103
401499
401896
402354
403076
403580
404031
404475
404942
405437
405634
406174
406379
406909
407613
407940
408284
408675
409090
409552
410000
410421
410830
411247
411698
412126
412505
412694
412849
413182
413614
414004
414226
414736
415142
415561
415960
416442
416849
417232
417432
417587
417932
418365
418758
419207
419387
419869
420305
420687
421137
421546
421909
422375
422819
423176
423625
424030
424422
424652
424803
425181
425597
426002
426422
426820
427317
427503
427981
428395
428767
429247
429683
429858
430322
430751
431131
431610
432031
432370
432856
433293
433735
433920
434379
434789
435157
435647
436074
436482
436836
437304
437511
438031
438437
438863
439204
439454
439619
440001
440422
440851
441257
441649
442122
442314
442770
443187
443551
444033
444464
444848
445047
445524
445967
446408
446783
447004
447506
447921
448362
448737
449219
449624
449988
450483
450921
451104
451253
451602
451999
452183
452705
453150
453475
453980
454411
454841
455042
455553
455963
456280
456799
457245
457661
458013
458467
458656
459138
459584
459994
460340
460779
461230
461563
462066
462719
463129
463576
463950
464403
464576
465064
465494
465931
466297
466741
467149
467483
467982
468403
468745
469199
469598
469980
470426
470849
471162
471657
472090
472476
472948
473362
473712
474192
474625
475008
475436
475864
476231
476711
477134
477503
477920
478352
478736
479165
479592
479928
480398
480824
481226
481687
482100
482461
482973
483401
483777
484196
484616
484979
485487
485885
486244
486687
487114
487500
487961
488362
488714
489200
489652
490006
490459
490875
491232
491703
492122
492502
492919
493371
493853
494282
494704
495130
495553
496013
496449
496856
497262
497705
498139
498580
498998
499406
499825
500280
500722
501146
501570
502003
502447
502885
503302
503706
504142
504592
505019
505432
505839
506253
506693
507143
507552
507951
508374
508788
509226
509649
510058
510460
510910
511354
511763
512169
512579
512997
513431
513841
514236
514627
515060
515498
515912
516323
516738
517163
517611
518047
518445
518851
519266
519712
520103
520531
520913
521331
521765
522232
522423
522559
522926
523351
523545
524041
524462
524640
524780
525127
525531
525974
526406
526584
527101
527311
527804
528548
528744
529255
529462
529954
530694
530880
531411
531601
532102
532309
532852
533553
533733
534240
534440
534979
535181
535310
535688
535868
536373
537135
537316
537838
538027
538149
538536
538730
539281
539999
540179
540690
540892
541442
541628
541862
542227
542393
542919
543144
543691
544399
544584
545131
545322
545887
546098
546598
547293
547491
547640
548028
548219
548738
549050
549476
549691
550262
550971
551147
551697
552441
552623
553143
553556
553993
554364
554611
555137
555840
556037
556574
557276
557461
557595
557938
558265
558640
558832
558964
559319
559503
559622
559986
560173
560707
561432
561734
562128
562317
562472
562921
563376
563563
564078
564265
564804
565558
565735
566242
566983
567171
567706
568395
569092
569294
569826
570492
570682
570815
571014
571582
571921
572346
572543
573048
573803
573996
574485
574799
574986
575133
575347
575522
575696
575854
576044
576333
576539
576691
576906
577077
577275
577569
577866
578079
578251
578452
578695
578961
579142
579398
579632
579957
580154
580366
580543
580709
580942
581158
581359
581517
581656
581811
581965
582096
582246
582528
582710
583120
583360
583553
583733
583913
584223
584456
584716
584967
585208
585512
585692
585866
586292
586574
586836
587072
587357
587517
587646
587824
588032
588293
588532
588796
589006
589281
589476
589811
589998
590252
590519
590771
590993
591259
591421
591621
591917
592141
592363
592652
592920
593237
593396
593681
593944
594159
594420
594583
594844
595090
595349
595563
595850
596031
596347
596561
596849
597066
597324
597578
597820
598016
598238
598453
598756
599021
599279
599440
599664
599822
600113
600368
600561
600870
601124
601421
601708
601921
602180
602368
602588
602764
602911
603137
603401
603667
603909
604094
604358
604528
604761
604993
605232
605475
605712
605972
606194
606426
606632
606867
607196
607415
607557
607792
608067
608310
608550
608863
609085
609337
609559
609827
610134
610402
610563
610808
611031
611314
611593
611829
612133
612399
612716
612978
613184
613387
613576
613791
614108
614271
614515
614732
614942
615121
615252
615516
615796
615978
616222
616467
616724
616962
617133
617441
617659
617948
618144
618302
618572
618814
619014
619219
619441
619677
619856
620050
620223
620461
620737
620971
621239
621398
621624
621876
622140
622407
622630
622846
623040
623292
623457
623675
623908
624144
624348
624577
624826
625127
625471
625716
625926
626178
626421
626584
626827
627022
627194
627458
627706
627878
628309
628528
628698
628903
629127
629322
629622
629794
630027
630290
630456
630731
630950
631219
631388
631554
631811
632073
632359
632616
632772
633005
633283
633500
633732
634013
634384
634665
634919
635206
635490
635664
635835
636100
636347
636649
636905
637278
637521
637691
637875
638100
638293
638530
638707
638926
639135
639363
639627
639844
639992
640256
640519
640788
641014
641203
641539
641818
642034
642305
642493
642730
642966
643234
644592
645176
645800
646047
646516
647246
647962
648417
649102
649797
