346
740
1153
1574
1978
2363
2755
3165
3587
4004
4397
4797
5198
5611
6013
6405
6796
7189
7605
8039
8459
8855
9258
9675
10107
10352
10898
11288
11679
12086
12494
12884
13277
13673
14093
14522
14947
15350
15754
16173
16606
17021
17406
17790
18190
18610
19003
19396
19787
20188
20608
21033
21457
21857
22254
22679
23107
23527
23927
24328
24754
25178
25589
25982
26372
26776
27199
27616
28028
28421
28822
29243
29674
30089
30487
30884
31324
31751
32147
32532
32916
33306
33707
34104
34501
34887
35276
35690
36110
36522
36907
37290
37700
38114
38521
38922
39314
39727
40153
40570
40976
41366
41756
42165
42579
42992
43384
43776
44187
44615
45028
45424
45817
46227
46657
47077
47487
47888
48292
48707
49131
49539
49934
50325
50733
51163
51576
51966
52359
52769
53207
53633
54041
54453
54873
55301
55723
56122
56515
56906
57316
57740
58144
58532
58930
59352
59786
60204
60595
60995
61403
61824
62241
62643
63043
63450
63870
64296
64700
65085
65469
65877
66305
66711
67100
67497
67922
68352
68769
69168
69565
69977
70397
70817
71225
71613
72011
72429
72859
73273
73668
74068
74506
74940
75363
75766
76175
76603
77023
77443
77832
78216
78616
79041
79461
79862
80245
80642
81062
81477
81881
82115
82651
83062
83477
83886
84283
84673
85079
85505
85929
86335
86728
87121
87552
87974
88216
88748
89129
89536
89933
90330
90725
91113
91514
91938
92362
92775
93168
93552
93967
94396
94806
95202
95592
95829
96397
96799
97178
97555
97944
98351
98759
99166
99564
99956
100365
100795
101216
101609
102008
102420
102856
103279
103679
104082
104490
104909
105331
105734
106132
106526
106946
107380
107798
108192
108586
108998
109418
109824
110203
110588
111001
111422
111829
112233
112635
113046
113474
113910
114330
114731
115134
115558
115991
116404
116800
117202
117633
118061
118485
118894
119303
119728
120161
120421
121004
121404
121818
122249
122677
123084
123478
123894
124326
124744
125154
125545
125947
126365
126783
127202
127599
127990
128405
128833
129256
129650
130033
130438
130862
131271
131671
132059
132468
132901
133327
133749
134151
134551
134972
135401
135818
136210
136590
136999
137409
137811
138193
138578
138982
139417
139849
140274
140688
141095
141516
141942
142359
142755
143146
143555
143985
144399
144795
145066
145487
145935
146380
146803
147233
147662
148095
148526
148947
149333
149702
150081
150480
150885
151280
151677
152089
152527
152950
153350
153749
154158
154582
155006
155414
155643
156198
156610
157019
157422
157804
158185
158586
159009
159428
159824
160220
160633
161058
161476
161882
162277
162675
163090
163513
163924
164315
164705
165117
165548
165974
166375
166773
167196
167629
168043
168438
168826
169222
169631
170035
170295
170811
171182
171565
171954
172343
172719
173088
173468
173877
174280
174681
175062
175448
175845
176255
176668
177073
177461
177857
178273
178703
179117
179512
179906
180329
180750
181151
181540
181929
182338
182750
183162
183567
183958
184353
184776
185200
185618
186010
186407
186835
187262
187671
188066
188455
188863
189269
189674
190073
190457
190846
191261
191682
192092
192486
192872
193278
193698
194103
194486
194871
195269
195691
196105
196505
196903
197301
197710
198127
198532
198924
199309
199697
200105
200496
200855
201212
201576
201956
202341
202710
203061
203425
203801
204208
204623
205027
205420
205812
206214
206637
207056
207445
207832
208225
208624
209008
209379
209739
210107
210482
210855
211221
211567
211902
212235
212580
212928
213276
213615
213937
214257
214589
214935
215291
215636
215967
216296
216630
216976
217311
217645
217970
218293
218538
218929
219265
219605
219942
220264
220574
220889
221222
221562
221905
222232
222466
222868
223209
223548
223891
224231
224475
224881
225218
225557
225906
226254
226510
226925
227251
227583
227924
228275
228546
228952
229268
229593
229941
230284
230619
230947
231259
231576
231899
232232
232485
232905
233238
233552
233861
234188
234523
234863
235209
235530
235852
236179
236529
236878
237216
237546
237868
238191
238437
238872
239211
239542
239865
240176
240489
240828
241144
241467
241787
242092
242400
242722
243056
243398
243724
244038
244266
244656
244989
245329
245660
245978
246295
246614
246937
247269
247618
247955
248294
248627
248950
249296
249655
250038
250377
250717
251057
251431
251806
252183
252549
252912
253274
253658
254042
254431
254799
255174
255538
255925
256327
256720
257091
257462
257843
258247
258653
259036
259415
259790
260191
260586
260982
261363
261743
262126
262519
262932
263316
263684
264050
264434
264835
265015
265154
265828
266192
266573
266953
267327
267710
267884
268312
268687
268863
269329
269704
269875
270303
270664
271037
271294
271800
272163
272527
272914
273096
273570
273966
274137
274590
274976
275452
276015
276401
276778
277406
277821
278229
278403
278850
279245
279649
280055
280455
280631
281092
281478
281885
282068
282545
282942
283112
283560
283955
284354
284756
285128
285493
285870
286279
286682
287073
287449
287834
288237
288642
288821
289297
289688
290072
290251
290741
291142
291537
291905
292280
292684
293086
293476
293851
294219
294612
295021
295415
295805
296181
296560
296951
297344
297745
298129
298493
298875
299278
299685
300062
300434
300810
301200
301616
302007
302393
302568
303014
303414
303809
304206
304585
304954
305334
305738
306150
306544
306921
307292
307684
308089
308481
308849
309229
309602
310009
310415
310813
311199
311577
311967
312379
312790
313179
313562
313956
314365
314780
315176
315561
315947
316348
316755
317156
317548
317919
318307
318703
319116
319508
319884
320269
320663
321077
321472
321855
322239
322628
323030
323439
323844
324225
324615
325010
325433
325840
326230
326610
327005
327417
327837
328231
328615
329014
329424
329836
330244
330626
331019
331413
331822
332229
332614
332991
333367
333760
334170
334558
334940
335315
335720
336127
336528
336913
337285
337676
338074
338477
338875
339262
339637
340030
340442
340851
341242
341619
342007
342437
342852
343243
343627
344018
344429
344841
345247
345645
346030
346424
346829
347242
347639
348022
348409
348824
349228
349622
349998
350368
350751
351143
351527
351907
352271
352641
353019
353420
353814
354203
354578
354949
355362
355760
356149
356519
356882
357256
357648
358023
358387
358757
359112
359488
359893
360281
360674
361054
361436
361862
362276
362666
363061
363452
363871
364289
364705
365104
365502
365909
366324
366746
367155
367538
367933
368350
368778
369185
369570
369964
370382
370799
371215
371619
372013
372420
372839
373260
373666
374062
374467
374889
375317
375736
376125
376527
376951
377391
377810
378211
378630
379057
379488
379907
380315
380721
381137
381573
382000
382407
382807
383217
383656
384092
384498
384906
385334
385776
386210
386624
387038
387457
387895
388334
388753
389147
389555
389979
390411
390822
391212
391620
392052
392486
392910
393314
393727
394147
394574
395011
395418
395822
396246
396668
397105
397515
397913
398349
398795
399214
399625
400023
400449
400884
401312
401733
402134
402546
402974
403411
403831
404231
404409
404934
405141
405284
405659
405844
406329
406521
407016
407217
407724
407928
408066
408417
408598
409088
409294
409435
409816
410008
410154
410517
410693
411188
411394
411544
411702
411877
412086
412319
412514
412697
412872
413035
413251
413466
413651
413808
414072
414318
414517
414702
414874
415081
415248
415402
415627
415830
416060
416259
416451
416690
417151
417574
417760
417920
418348
418537
418690
419076
419251
419396
419783
419970
420140
420535
420716
421233
421417
421923
422105
422249
422641
422823
422982
423353
423529
423678
423944
424139
424331
424498
424830
425072
425259
425482
425796
426002
426240
426421
426603
426815
426988
427156
427334
427504
427673
427873
428066
428385
428580
428803
429014
429191
429370
429540
429716
429888
430072
430244
430416
430589
430761
430948
431130
431315
431488
431671
431908
432083
432255
432492
432716
432914
433165
433361
433542
433717
433886
434045
434208
434375
434537
434696
434918
435139
435313
435488
435658
435835
436022
436190
436352
436511
436677
436824
436991
437173
437339
437512
437685
437864
438036
438216
438385
438615
438794
439020
439241
439411
439589
439759
439932
440105
440282
440449
440658
440812
440978
441135
441307
441476
441731
441896
442082
442294
442472
442702
442910
443116
443322
443510
443763
443973
444206
444415
444638
444869
445021
445264
445417
445575
445728
445891
446060
446229
446391
446570
446730
446964
447125
447284
447518
447697
447914
448168
448344
448518
448814
448982
449140
449290
449445
449599
449754
449910
450069
450226
450390
450554
450718
450899
451068
451220
451378
451529
451692
451864
452072
452248
452460
452632
452803
452971
453130
453289
453448
453605
453756
453979
454306
454526
454699
454864
455023
455189
455351
455514
455667
455820
455984
456157
456300
456451
456626
456796
456967
457278
457453
457756
457909
458067
458210
458358
458502
458668
458970
459138
459305
459466
459648
459813
460039
460257
460400
460561
460858
461032
461195
461362
461517
461677
461832
461991
462147
462298
462448
462603
462749
462929
463087
463254
463405
463566
463718
463881
464045
464200
464360
464513
464652
464859
465239
465814
466313
466475
467059
467231
467415
467866
468040
468601
468770
468930
469249
469479
469764
469982
470157
470345
470599
471062
471315
471508
471720
472015
472191
472348
472656
472970
473146
473435
473708
473907
474070
474402
474665
474829
474992
475129
475405
475633
475815
476024
476239
476426
476639
476796
476965
477232
477433
477563
477729
477938
478179
478446
478607
478822
478978
479218
479371
479707
479922
480182
480442
480737
480941
481174
481351
481576
481762
482015
482249
482575
482776
483172
483381
483511
483722
483946
484194
484468
484738
485028
485284
485444
485703
485925
486190
486391
486638
486928
487211
487494
487676
487959
488296
488495
488692
489017
489231
489471
489675
489941
490174
490376
490634
490810
490972
491275
491505
491701
491937
492102
492304
492586
492845
493075
493283
493525
493795
494010
494212
494378
494607
494875
495296
495565
495868
496141
496401
496631
496923
497198
497408
497732
497937
498170
498335
498585
498771
498984
499196
499461
499682
500013
500448
500762
500981
501246
501543
501716
502006
502209
502428
502679
502868
503118
503272
503432
503658
503894
504069
504294
504671
504872
505145
505328
505510
505662
505867
506030
506244
506530
506830
507059
507287
507524
507816
508000
508240
508453
508722
508962
509144
509372
509687
509912
510160
510314
510560
510806
510978
511189
511392
511612
511835
511997
512208
512418
512578
512845
513011
513258
513520
513827
514118
514362
514639
514860
515085
515407
515686
515896
516120
516406
516640
516886
517112
517347
517582
517876
518199
518433
518591
518844
519043
519274
519546
519843
520071
520299
520487
520720
520965
521266
521532
521760
522004
522264
522496
522672
522931
523266
523461
523812
524016
524247
524471
524623
524854
525051
525277
525452
525664
525901
526130
526293
526483
526645
526962
527215
527417
527583
527740
527971
528166
528301
528542
528774
528976
529248
529394
529569
529821
530132
530400
530689
530906
531219
531391
531607
531873
532267
532585
532800
533076
533283
533586
533815
533958
534117
534355
534543
534822
534998
535246
535570
535899
536089
536244
536420
536732
536979
537201
537399
537670
537930
538092
538299
538484
538735
538979
539277
539584
539838
540050
540191
540501
540785
541132
541366
541671
541950
542240
542425
542792
543033
543280
543465
543671
543894
544106
544333
544602
544846
544997
545297
545556
545783
546042
546282
546527
546771
547067
547346
547526
547795
548089
548262
548554
548756
549003
549171
549402
549677
549937
550150
550325
550501
550704
550863
551030
551193
551353
551515
551683
551854
552030
552193
552362
552522
552685
552848
553009
553174
553337
553503
553675
553844
554018
554196
554371
554558
554800
555015
555185
555339
555500
555663
555818
555980
556150
556322
556498
556670
556836
557001
557160
557315
557471
557628
557788
557943
558107
558276
558446
558619
558784
558948
559113
559270
559427
559583
559740
559899
560058
560224
560393
560556
560724
560888
561055
561218
561377
561538
561694
561850
562008
562162
562324
562485
562634
562800
562963
563130
563298
563455
563612
563762
563910
564064
564218
564376
564528
564690
564854
565023
565192
565358
565514
565674
565828
565981
566132
566288
566443
566600
566757
566920
567152
567379
567636
567860
568070
568348
568580
568769
569062
569308
569503
569889
570120
570459
570716
570907
571238
571514
571793
572044
572252
572403
572624
572834
573207
573422
573663
573916
574118
574358
574584
574840
575095
575293
575464
575699
575978
576236
576383
576700
576939
577114
577387
577635
577887
578231
578479
578776
578968
579155
579434
579746
580077
580337
580585
580723
580993
581181
581395
581692
581919
582196
582372
582525
582662
582832
583055
583265
583483
583690
584050
584315
584614
584875
585077
585305
585463
585616
585813
586037
586254
586518
586700
586869
587130
587292
587586
587795
588041
588385
588713
589037
589309
589538
589749
589967
590309
590569
590787
591046
591214
591533
591751
591981
592229
592618
592887
593139
593418
593663
593856
594094
594264
594470
594711
595051
595275
595475
595806
596015
596274
596499
596711
596845
597141
597408
597659
597952
598225
598427
598678
598848
599191
599385
599622
599793
600063
600351
600606
600825
601087
601461
601722
601954
602210
602366
602660
602890
603149
603456
603656
603999
604207
604402
604663
604887
605255
605428
605685
605954
606219
606560
606772
607042
607264
607463
607656
607853
608181
608356
608552
608827
609066
609263
609524
609747
609901
610153
610395
610690
611079
611293
611472
611719
611977
612157
612379
612686
612987
613178
613396
613573
613797
614033
614207
614505
614823
615110
615401
615681
615931
616251
616507
616753
616980
617165
617447
617735
618038
618216
618517
618682
619003
619341
619537
619836
620081
620309
620614
620826
621026
621343
621616
621907
622140
622443
622686
622856
623080
623335
623591
623850
624031
624371
624544
624753
624894
625034
625199
625442
625630
625913
626171
626548
626750
626953
627152
627367
627642
627861
628093
628302
628506
628779
629020
629346
629561
629844
630192
630424
630685
630871
631131
631313
631470
631692
631888
632057
632316
632479
632613
632818
633113
633355
633611
633939
634153
634419
634655
634930
635203
635431
635753
636126
636315
636607
636831
636959
637236
637468
637656
637809
638075
638360
638638
638920
639078
639294
639640
639869
640134
640459
640732
640949
641208
641353
641619
641846
642066
642272
642576
642890
643102
643383
643631
643832
644013
644306
644521
644718
645020
645287
645601
645892
646303
646462
646586
646853
647033
647303
647630
647857
648120
648341
648554
648719
649088
649338
649612
649873
