226
463
703
942
1185
1428
1668
1900
2143
2390
2633
2871
3110
3351
3592
3837
4081
4321
4558
4803
5056
5300
5540
5780
6021
6263
6511
6750
6989
7225
7468
7706
7945
8179
8417
8652
8896
9137
9372
9608
9848
10095
10335
10573
10807
11041
11276
11517
11765
11997
12234
12472
12719
12958
13201
13439
13683
13922
14167
14417
14660
14899
15143
15392
15637
15875
16115
16354
16596
16840
17085
17323
17559
17802
18048
18290
18529
18767
19006
19248
19497
19735
19978
20215
20461
20706
20951
21190
21432
21673
21925
22174
22417
22656
22900
23148
23390
23629
23869
24107
24344
24586
24832
25068
25303
25543
25789
26025
26264
26501
26743
26981
27223
27464
27703
27942
28187
28436
28676
28910
29148
29389
29631
29873
30112
30351
30592
30837
31085
31328
31564
31801
32040
32283
32527
32766
33006
33239
33480
33722
33962
34195
34430
34666
34908
35152
35392
35631
35867
36109
36351
36591
36826
37060
37298
37537
37780
38013
38252
38484
38726
38964
39202
39435
39669
39905
40146
40386
40623
40858
41093
41331
41569
41809
42040
42270
42504
42741
42980
43214
43452
43684
43925
44167
44409
44645
44885
45124
45370
45616
45856
46096
46338
46583
46824
47064
47303
47541
47780
48021
48265
48503
48743
48987
49237
49473
49712
49949
50194
50432
50677
50916
51156
51390
51632
51876
52116
52350
52587
52827
53072
53320
53563
53804
54039
54279
54528
54767
55001
55235
55473
55713
55954
56194
56435
56671
56916
57160
57403
57642
57885
58123
58366
58609
58845
59083
59320
59561
59800
60034
60268
60505
60741
60982
61225
61460
61697
61935
62184
62425
62664
62897
63133
63368
63611
63852
64085
64319
64559
64806
65047
65285
65525
65764
66003
66244
66490
66725
66961
67196
67440
67676
67910
68141
68376
68608
68847
69089
69324
69557
69792
70039
70278
70517
70753
70987
71222
71461
71705
71940
72171
72404
72646
72882
73119
73354
73591
73826
74066
74308
74543
74781
75020
75267
75505
75742
75979
76220
76462
76707
76953
77195
77432
77676
77927
78169
78409
78649
78892
79133
79377
79622
79865
80101
80345
80593
80837
81074
81317
81562
81810
82058
82298
82539
82781
83035
83279
83522
83760
83997
84234
84475
84723
84962
85200
85442
85690
85931
86171
86411
86654
86892
87135
87378
87623
87857
88098
88342
88582
88815
88984
89289
89530
89768
90008
90244
90474
90714
90958
91193
91422
91655
91896
92137
92376
92614
92849
93085
93328
93572
93808
94038
94271
94507
94744
94982
95212
95449
95680
95923
96163
96401
96633
96867
97101
97338
97575
97810
98041
98267
98500
98738
98968
99195
99422
99656
99882
100115
100347
100576
100799
101029
101263
101490
101715
101939
102160
102380
102604
102828
103047
103266
103482
103707
103935
104153
104370
104593
104819
105041
105269
105501
105725
105953
106177
106411
106642
106874
107002
107320
107509
107629
107738
107833
107967
108100
108218
108321
108450
108675
108909
109259
109367
109488
109600
109705
110019
110102
110295
110515
110747
110970
111195
111421
111657
111886
112117
112345
112577
112807
113044
113282
113515
113751
113856
114211
114447
114679
114906
115136
115366
115598
115831
116062
116290
116516
116748
116988
117219
117447
117679
117917
118151
118387
118622
118856
119084
119322
119560
119793
120020
120251
120486
120718
120955
121192
121426
121657
121899
122146
122382
122615
122851
123090
123326
123564
123802
124039
124270
124507
124750
124987
125222
125459
125699
125939
126184
126430
126672
126909
127154
127403
127646
127887
128126
128366
128613
128862
129104
129345
129592
129844
130088
130330
130570
130744
131054
131297
131537
131773
132004
132238
132479
132713
132946
133179
133417
133650
133893
134138
134374
134608
134849
135098
135335
135569
135802
136041
136273
136511
136750
136981
137211
137446
137688
137920
138152
138385
138619
138848
139088
139327
139562
139792
140026
140268
140501
140734
140969
141201
141432
141671
141913
142145
142378
142612
142855
143088
143327
143559
143794
144027
144267
144510
144742
144975
145211
145454
145689
145922
146154
146387
146620
146859
147098
147329
147562
147795
148038
148273
148505
148736
148968
149202
149437
149675
149904
150137
150367
150604
150838
151072
151299
151532
151763
151998
152233
152467
152699
152928
153162
153400
153634
153862
154091
154323
154553
154787
155020
155251
155479
155713
155952
156185
156882
157115
157352
157586
157818
158046
158283
158520
158751
158977
159207
159439
159669
159901
160135
160362
160589
160821
161061
161288
161519
161750
161981
162209
162445
162684
162909
163138
163367
163604
163834
164067
164293
164521
164747
164982
165218
165448
165680
165911
166147
166383
166617
166847
167078
167309
167543
167779
168009
168241
168467
168702
168938
169171
169399
169630
169865
170098
170335
170568
170801
171028
171264
171501
171735
171959
172188
172420
172650
172884
173118
173346
173576
173811
174054
174286
174520
174751
174985
175217
175452
175690
175918
176148
176379
176616
176848
177082
177313
177543
177773
178010
178250
178482
178715
178945
179182
179417
179651
179878
180103
180331
180562
180795
181024
181255
181479
181713
181951
182179
182406
182635
182869
183099
183331
183564
183794
184020
184254
184491
184718
184945
185177
185409
185642
185877
186117
186347
186578
186811
187052
187284
187517
187745
187974
188200
188434
188665
188888
189113
189334
189564
189793
190022
190240
190463
190688
190914
191142
191371
191593
191813
192040
192271
192494
192719
192943
193167
193392
193623
193858
194084
194314
194545
194785
195017
195251
195482
195714
195944
196180
196414
196642
196873
197104
197340
197575
197809
198039
198270
198506
198745
198986
199218
199455
199692
199933
200172
200413
200644
200877
201044
201347
201588
201817
202051
202279
202516
202751
202989
203219
203451
203684
203926
204167
204403
204638
204871
205109
205349
205586
205817
206048
206282
206516
206754
206984
207217
207448
207685
207923
208161
208390
208622
208858
209096
209337
209572
209807
210042
210284
210527
210763
210992
211224
211460
211701
211939
212171
212407
212641
212882
213124
213361
213591
213824
214062
214299
214537
214769
215005
215235
215473
215711
215947
216175
216406
216640
216875
217111
217348
217582
217813
218047
218290
218522
218753
218983
219219
219450
219686
219922
220161
220391
220627
220867
221101
221335
221573
221813
222048
222286
222526
222763
222996
223232
223474
223709
223940
224171
224407
224639
224874
225111
225344
225574
225807
226051
226284
226515
226742
226975
227203
227437
227669
227898
228122
228353
228590
228821
229049
229276
229505
229733
229969
230205
230434
230610
230893
231132
231362
231595
231825
232052
232281
232514
232754
232983
233216
233447
233688
233924
234161
234394
234629
234866
234990
235342
235579
235814
236048
236286
236520
236753
236986
237220
237457
237697
237940
238178
238421
238664
238914
239155
239399
239637
239882
240117
240361
240602
240839
241073
241311
241555
241792
242030
242268
242509
242747
242989
243232
243471
243707
243945
244192
244430
244665
244900
245141
245375
245616
245854
246094
246327
246568
246814
247053
247288
247527
247767
248007
248249
248489
248729
248964
249205
249449
249688
249924
250160
250399
250642
250887
251124
251364
251601
251844
252087
252329
252563
252797
253035
253279
253525
253764
254003
254240
254485
254730
254971
255205
255442
255679
255922
256167
256405
256641
256877
257124
257363
257603
257837
258074
258309
258550
258795
259030
259264
259504
259753
259993
260235
260475
260719
260957
261200
261445
261683
261916
262158
262407
262648
262884
263120
263362
263607
263852
264091
264329
264566
264812
265056
265295
265528
265763
265999
266240
266481
266716
266952
267189
267433
267676
267918
268156
268394
268630
268874
269120
269357
269591
269827
270074
270311
270549
270783
271019
271253
271494
271735
271970
272203
272441
272685
272921
273153
273387
273628
273863
274103
274340
274578
274809
275047
275288
275521
275748
275981
276217
276451
276686
276924
277154
277382
277616
277856
278088
278318
278547
278781
279009
279244
279478
279707
279933
280161
280396
280629
280862
281085
281313
281539
281774
282006
282236
282465
282693
282927
283163
283395
283619
283845
284077
284307
284539
284768
284998
285223
285456
285693
285923
286151
286381
286615
286846
287077
287312
287539
287768
287996
288230
288454
288680
288908
289131
289356
289583
289816
290043
290272
290496
290727
290964
291195
291419
291648
291882
292112
292342
292574
292805
293030
293261
293496
293727
293954
294189
294426
294660
294898
295138
295373
295605
295842
296045
296317
296560
296787
297020
297258
297494
297731
297962
298200
298436
298681
298917
299157
299395
299639
299877
300113
300359
300597
300831
301066
301313
301554
301782
302013
302249
302494
302733
302969
303202
303441
303689
303933
304173
304399
304640
304880
305123
305362
305592
305834
306069
306311
306549
306794
307028
307264
307498
307745
307991
308229
308466
308707
308955
309192
309432
309669
309909
310144
310384
310630
310869
311105
311345
311595
311836
312072
312307
312554
312800
313041
313280
313517
313757
313999
314243
314480
314719
314957
315199
315443
315684
315925
316167
316406
316652
316898
317149
317388
317629
317870
318124
318375
318621
318860
319109
319364
319613
319852
320094
320343
320591
320839
321086
321333
321577
321829
322080
322327
322575
322819
323062
323307
323562
323803
324046
324283
324539
324785
325034
325274
325520
325763
326007
326254
326495
326738
326986
327239
327485
327721
327956
328197
328443
328684
328927
329172
329408
329653
329897
330137
330372
330610
330851
331093
331332
331563
331804
332035
332274
332510
332750
332980
333212
333362
333684
333985
334156
334392
334626
334868
335106
335351
335584
335818
336055
336297
336541
336777
337018
337255
337503
337742
337986
338227
338477
338717
338960
339204
339448
339688
339936
340184
340423
340650
340893
341137
341379
341619
341853
342097
342332
342579
342827
343074
343311
343547
343781
344029
344275
344510
344744
344976
345223
345462
345699
345932
346165
346405
346651
346897
347134
347373
347610
347853
348096
348340
348813
349047
349292
349535
349770
350002
350238
350488
350729
350965
351203
351444
351683
351925
352167
352404
352636
352873
353117
353355
353588
353818
354057
354290
354530
354770
355003
355235
355473
355724
355960
356195
356429
356675
356909
357147
357381
357618
357844
358087
358328
358564
358792
359026
359267
359502
359738
359977
360215
360444
360678
360920
361151
361389
361623
361859
362090
362329
362575
362814
363044
363286
363538
363781
364016
364255
364499
364747
364992
365234
365477
365720
365970
366217
366459
366702
366948
367194
367441
367692
367939
368184
368431
368688
368934
369180
369425
369673
369916
370167
370414
370661
370899
371149
371405
371656
371897
372146
372395
372650
372907
373153
373397
373652
373912
374157
374400
374648
374897
375143
375393
375638
375882
376122
376374
376622
376870
377111
377356
377601
377848
378096
378340
378576
378825
379077
379320
379558
379803
380050
380298
380549
380792
381042
381289
381545
381795
382045
382291
382541
382788
383043
383297
383549
383791
384047
384303
384557
384803
385050
385298
385552
385810
386059
386302
386553
386811
387062
387310
387556
387808
388059
388316
388568
388818
389065
389327
389581
389836
390085
390340
390592
390850
391106
391357
391603
391863
392121
392373
392620
392869
393121
393374
393630
393878
394125
394380
394640
394889
395132
395382
395633
395887
396139
396387
396635
396882
397139
397390
397639
397888
398139
398385
398638
398895
399148
399394
399648
399906
400160
400408
400656
400905
401158
401416
401668
401913
402168
402428
402680
402927
403180
403434
403691
403949
404200
404450
404703
404965
405219
405467
405716
405969
406224
406481
406735
406987
407234
407501
407763
408021
408270
408526
408780
409039
409293
409544
409793
410055
410314
410571
410823
411078
411334
411595
411855
412111
412362
412621
412882
413135
413386
413635
413882
414136
414391
414643
414892
415147
415405
415661
415908
416162
416412
416668
416930
417181
417430
417688
417947
418201
418443
418694
418946
419202
419463
419716
419969
420225
420494
420749
421002
421254
421513
421768
422030
422282
422534
422783
423046
423302
423556
423809
424064
424322
424584
424845
425103
425354
425617
425874
426128
426380
426632
426883
427142
427398
427651
427902
428163
428420
428678
428930
429187
429439
429699
429956
430211
430460
430719
430979
431233
431485
431737
431993
432134
432504
432686
432993
433254
433520
433775
434024
434275
434527
434784
435043
435295
435546
435800
436065
436322
436576
436832
437091
437351
437613
437872
438129
438385
438650
438908
439161
439414
439673
439925
440185
440438
440694
440948
441211
441467
441723
441978
442239
442495
442753
443011
443267
443522
443789
444047
444303
444556
444817
445076
445338
445593
445846
446100
446368
446624
446878
447132
447391
447650
447914
448170
448427
448683
448952
449208
449465
449721
449976
450233
450499
450765
451027
451290
451558
451821
452082
452343
452606
452869
453135
453396
453656
453920
454191
454453
454709
454970
455235
455501
455769
456031
456287
456553
456819
457080
457333
457592
457851
458111
458377
458632
458889
459151
459423
459687
459950
460213
460475
460743
461011
461276
461532
461801
462069
462337
462596
462862
463123
463393
463659
463925
464187
464456
464720
464978
465239
465501
465758
466020
466277
466537
466796
467062
467323
467583
467845
468113
468375
468643
468904
469167
469428
469696
469955
470209
470467
470728
470989
471252
471512
471769
472029
472299
472556
472812
473064
473326
473587
473847
474104
474358
474612
474878
475131
475387
475641
475903
476162
476421
476680
476935
477191
477453
477712
477966
478222
478479
478735
478860
479238
479495
479749
480011
480268
480525
480779
481042
481296
481558
481814
482072
482325
482592
482849
483105
483358
483506
483866
484127
484385
484638
484893
485156
485415
485668
485921
486176
486429
486688
486944
487200
487450
487713
487973
488233
488488
488751
489009
489277
489540
489803
490062
490330
490594
490853
491111
491371
491632
491893
492155
492280
492662
492931
493191
493443
493700
493960
494220
494483
494741
494999
495255
495523
495782
496036
496295
496554
496815
497078
497337
497594
497851
498119
498382
498639
498895
499154
499414
499677
499934
500191
500444
500712
500968
501228
501481
501743
502003
502264
502524
502781
503039
503307
503567
503825
504087
504353
504618
504887
505152
505419
505688
505961
506228
506493
506760
507028
507297
507572
507841
508105
508375
508647
508912
509172
509438
509701
509968
510236
510501
510762
511032
511299
511560
511821
512084
512343
512607
512867
513126
513380
513645
513903
514161
514416
514597
514931
515076
515454
515714
515969
516233
516491
516746
516998
517255
517508
517768
518028
518287
518545
518813
519077
519339
519603
519868
520133
520405
520667
520928
521190
521462
521724
521978
522238
522497
522762
523029
523291
523547
523815
524090
524226
524621
524884
525150
525415
525691
525828
526165
526359
526500
526630
526711
526806
526904
527119
527240
527299
527503
527750
527986
528241
528480
528728
528958
529233
529518
529776
530056
530316
530596
530895
531086
531391
531623
531824
531920
532183
532442
532704
532970
533237
533504
533769
534034
534157
534567
534831
535088
535353
535615
535881
536140
536399
536659
536931
537195
537450
537711
537972
538235
538496
538753
539009
539265
539533
539791
540047
540306
540570
540835
541105
541365
541631
541898
542173
542438
542694
542957
543219
543483
543749
544009
544265
544532
544802
545067
545321
545582
545848
546113
546384
546642
546900
547166
547434
547697
547953
548218
548480
548752
549020
549289
549549
549823
550098
550364
550634
550901
551169
551443
551712
551979
552245
552523
552794
553058
553327
553594
553862
554140
554406
554671
554940
555208
555472
555729
555991
556248
556511
556771
557031
557291
557558
557824
558087
558351
558621
558888
559159
559424
559692
559954
560228
560491
560751
561009
561272
561535
561804
562063
562322
562587
562856
563122
563379
563640
563903
564170
564438
564701
564959
565227
565494
565759
566019
566283
566549
566819
567088
567354
567618
567892
568162
568430
568694
568965
569229
569498
569762
570027
570287
570560
570826
571083
571346
571608
571877
572146
572407
572668
572934
573207
573471
573731
573991
574256
574522
574791
575055
575314
575583
575855
576123
576384
576652
576915
577184
577453
577716
577977
578244
578507
578769
579030
579293
579556
579820
580085
580349
580611
580880
581142
581404
581662
581927
582186
582451
582710
582970
583229
583496
583758
584014
584275
584540
584803
585070
585331
585591
585852
586124
586388
586646
586907
587169
587434
587705
587968
588228
588498
588771
589042
589304
589569
589832
590099
590366
590630
590886
591155
591416
591678
591938
592201
592465
592730
592997
593263
593530
593805
594072
594336
594498
594866
595133
595403
595662
595924
596189
596463
596727
596988
597254
597519
597792
598061
598327
598589
598859
599128
599391
599649
599912
600175
600443
600708
600973
601237
601512
601778
602044
602309
602580
602849
603121
603384
603646
603910
604182
604448
604706
604973
605236
605507
605639
606035
606296
606448
606825
607087
607343
607600
607858
608119
608293
608638
608895
609160
609427
609690
609945
610205
610464
610732
610997
611258
611513
611779
612046
612309
612567
612825
613086
613350
613617
613879
614135
614403
614667
614932
615192
615451
615710
615979
616115
616502
616758
617026
617285
617545
617801
618064
618327
618591
618856
619121
619386
619656
619924
620186
620449
620718
620982
621250
621511
621775
622040
622312
622579
622842
623109
623373
623645
623918
624185
624446
624716
624988
625255
625515
625779
626042
626307
626572
626835
627095
627368
627629
627892
628151
628417
628683
628949
629212
629474
629738
630010
630269
630528
630791
631054
631320
631584
631846
632106
632375
632644
632906
633165
633428
633689
633954
634219
634478
634736
635001
635269
635529
635785
636047
636311
636581
636846
637111
637374
637646
637909
638173
638431
638695
638955
639220
639480
639739
639999
640269
640536
640798
641064
641332
641603
641873
642140
642405
642673
642948
643212
643472
643735
643999
644268
644535
644802
645065
645340
645613
645879
646141
646409
646675
646943
647207
647470
647732
648004
648268
648530
648792
649057
649323
649593
649854
