18
308
833
1072
1585
1817
2339
2588
3109
3352
3854
4086
4636
4884
5407
5642
6157
6402
6937
7186
7698
7931
8435
8687
9213
9455
9947
10189
10687
10933
11450
11694
12195
12427
12936
13194
13352
13714
14122
14257
14520
14754
15012
15242
15370
15641
15788
15918
16067
16495
16595
16823
17040
17224
17414
17522
17668
18071
18242
18824
19069
19578
19825
19960
20091
20268
20396
20508
20612
21184
21610
22114
22373
22657
22882
23172
23500
23743
24174
24533
24865
25183
25494
25757
26161
26400
26807
27047
27455
27783
28034
28182
28715
28967
29108
29452
29846
30085
30563
30825
31258
31614
31944
32282
32635
32983
33338
33604
33994
34345
34706
35075
35419
35759
36104
36437
36790
37145
37498
37846
38180
38508
38865
39232
39574
39922
40262
40598
40949
41300
41652
41998
42330
42658
42982
43331
43683
44018
44352
44686
45006
45344
45684
46021
46295
46677
46900
47307
47602
47752
48016
48247
48668
48881
49330
49550
50024
50252
50724
50936
51382
51581
52089
52307
52784
53019
53469
53697
54157
54407
54866
55106
55556
55792
56263
56511
56971
57214
57664
57896
58369
58614
59088
59328
59783
60006
60490
60735
61217
61442
61910
62137
62598
62843
63321
63554
64030
64250
64728
64965
65454
65688
66154
66381
66858
67099
67590
67803
68299
68510
68993
69220
69730
69940
70430
70655
71129
71344
71862
72076
72579
72781
73279
73500
74016
74231
74726
75430
75645
76170
76386
76883
77090
77581
77801
78327
78538
79044
79256
79744
79967
80488
80704
81210
81421
81907
82134
82641
82856
83353
83567
84061
84287
84805
85026
85513
85720
86213
86431
86663
87037
87273
87636
87748
88104
88212
88494
89868
90245
90610
90870
91110
91793
92114
92641
92860
92960
93073
93193
93404
93687
93942
94434
94705
95203
95564
95918
96162
96303
96903
97123
97296
97587
98052
98143
98337
98553
98741
98863
99299
99705
99816
100017
100413
100549
100682
100795
100961
101419
101712
102147
102380
102778
103084
103384
103693
103850
104003
104304
104596
104884
105172
105445
105732
106039
106336
106622
106917
107195
107468
107744
108030
108322
108582
108859
109114
109384
109652
109912
110184
110468
110745
111016
111283
111539
111804
112061
112343
112621
112895
113158
113424
113696
113961
114216
114492
114772
115053
115324
115593
115851
116106
116350
116648
116925
117197
117464
117721
117974
118199
118450
118694
118933
119198
119455
119699
119948
120178
120423
120671
120923
121199
121460
121711
121974
122221
122488
122745
123018
123313
123600
123882
124158
124429
124702
124976
125259
125541
125825
126099
126372
126646
126913
127178
127459
127750
128032
128308
128577
128843
129106
129380
129669
129955
130228
130501
130782
131054
131312
131590
131876
132164
132446
132724
132991
133261
133533
133812
134102
134385
134663
134942
135219
135492
135764
136046
136342
136636
136919
137192
137467
137738
138015
138313
138612
138892
139181
139469
139748
140022
140311
140606
140909
141203
141487
141765
142046
142334
142635
142930
143223
143515
143804
144091
144373
144652
144959
145268
145560
145851
146138
146412
146707
147016
147318
147612
147910
148197
148482
148760
149056
149354
149650
149940
150222
150498
150776
150929
151068
151366
151652
151939
152221
152500
152777
153048
153331
153632
153925
154206
154480
154755
155020
155303
155598
155887
156169
156454
156733
157009
157274
157551
157841
158135
158420
158700
158972
159246
159524
159812
159957
160096
160380
160654
160933
161211
161480
161744
162030
162326
162607
162881
163153
163426
163692
163977
164262
164547
164828
165113
165385
165656
165915
166193
166484
166774
167053
167334
167603
167876
168149
168429
168712
168991
169265
169542
169815
170081
170342
170626
170922
171205
171479
171746
172012
172280
172552
172829
173114
173393
173675
173948
174221
174482
174759
175046
175334
175618
175898
176168
176443
176713
176997
177280
177567
177842
178124
178403
178674
178939
179227
179526
179811
180086
180359
180632
180906
181182
181469
181761
182042
182328
182605
182877
183139
183427
183716
184005
184290
184569
184840
185120
185390
185673
185964
186253
186537
186818
187097
187371
187641
187936
188231
188519
188796
189073
189350
189622
189907
190201
190489
190776
191069
191350
191621
191894
192183
192484
192781
193065
193341
193625
193904
194187
194482
194777
195066
195358
195644
195921
196194
196492
196794
197092
197375
197657
197939
198219
198513
198814
199112
199412
199706
199989
200269
200552
200847
201154
201452
201742
202028
202321
202598
202891
203192
203490
203787
204079
204359
204640
204922
205227
205529
205821
206111
206398
206684
206966
207260
207555
207853
208149
208437
208715
208995
209275
209577
209884
210177
210463
210754
211042
211325
211619
211920
212218
212513
212802
213089
213362
213660
213968
214271
214561
214856
215144
215434
215719
216020
216323
216633
216927
217213
217501
217785
218091
218408
218710
219007
219305
219602
219888
220186
220494
220801
221104
221402
221696
221978
222284
222599
222909
223208
223510
223803
224102
224395
224704
225019
225331
225632
225925
226219
226512
226831
227146
227454
227753
228052
228349
228639
228948
229262
229569
229875
230173
230464
230756
231076
231392
231695
231998
232293
232597
232892
233202
233521
233843
234146
234444
234738
235028
235343
235660
235969
236269
236571
236872
237161
237463
237781
238093
238403
238705
239000
239289
239605
239919
240230
240536
240835
241142
241436
241747
242067
242392
242701
243004
243304
243599
243912
244236
244555
244858
245169
245474
245765
246075
246398
246719
247039
247343
247639
247941
248257
248579
248898
249208
249517
249828
250126
250443
250773
251100
251418
251721
252028
252329
252652
252980
253295
253610
253935
254241
254541
254870
255195
255518
255833
256139
256447
256762
257086
257410
257726
258040
258356
258660
258975
259301
259635
259953
260258
260566
260864
261182
261515
261840
262154
262479
262788
263088
263409
263736
264067
264389
264700
265007
265327
265652
265983
266303
266619
266936
267247
267557
267882
268217
268539
268848
269159
269464
269786
270124
270451
270772
271099
271411
271715
272039
272370
272705
273025
273343
273660
273985
274323
274655
274986
275312
275635
275948
276269
276610
276952
277277
277597
277916
278232
278577
278916
279247
279590
279912
280230
280556
280903
281254
281584
281914
282254
282579
282930
283281
283623
283968
284302
284631
284971
285339
285684
286021
286364
286693
287033
287387
287732
288081
288419
288750
289076
289427
289789
290133
290472
290804
291139
291490
291837
292182
292524
292868
293198
293534
293906
294258
294600
294939
295274
295614
295965
296319
296669
297010
297345
297675
298030
298389
298739
299080
299414
299754
300098
300450
300799
301144
301487
301818
302159
302525
302877
303214
303551
303891
304228
304580
304931
305284
305627
305961
306290
306642
307000
307349
307687
308025
308360
308702
309058
309407
309758
310101
310432
310768
311133
311489
311829
312167
312505
312842
313196
313548
313909
314252
314582
314914
315262
315624
315971
316312
316654
316986
317329
317687
318034
318390
318726
319057
319395
319754
320106
320443
320780
321119
321453
321806
322160
322515
322857
323184
323513
323860
324222
324569
324906
325257
325590
325928
326289
326642
326994
327331
327664
328005
328362
328715
329062
329403
329745
330079
330430
330782
331138
331474
331809
332134
332482
332847
333192
333538
333885
334219
334560
334915
335270
335618
335950
336285
336622
336981
337332
337675
338019
338359
338691
339038
339399
339751
340092
340427
340756
341110
341478
341826
342177
342524
342860
343197
343557
343916
344267
344611
344948
345298
345661
346017
346370
346715
347058
347397
347751
348119
348470
348813
349153
349487
349779
350145
350500
350861
351206
351541
351887
352248
352616
352963
353303
353645
353994
354356
354706
355053
355397
355739
356073
356435
356803
357152
357495
357833
358173
358536
358895
359248
359598
359941
360271
360629
360996
361356
361705
362044
362392
362750
363106
363463
363812
364159
364493
364842
365217
365572
365922
366263
366600
366954
367310
367664
368018
368360
368696
369034
369396
369763
370110
370448
370791
371128
371482
371837
372182
372533
372874
373201
373563
373928
374278
374620
374958
375293
375645
376006
376360
376716
377059
377393
377740
378104
378466
378818
379156
379505
379844
380201
380562
380911
381262
381601
381941
382310
382667
383012
383353
383713
384049
384403
384768
385121
385478
385814
386149
386501
386865
387221
387562
387908
388245
388593
388958
389310
389664
390009
390345
390688
391056
391415
391755
392098
392440
392784
393147
393505
393868
394215
394552
394892
395253
395622
395972
396317
396672
397009
397369
397732
398088
398439
398783
399116
399477
399843
400194
400537
400879
401217
401567
401929
402288
402636
402972
403308
403651
404016
404372
404715
405065
405406
405744
406098
406457
406813
407150
407486
407823
408182
408542
408891
409236
409578
409915
410267
410627
410988
411334
411669
412003
412357
412729
413081
413431
413782
414119
414463
414823
415183
415534
415875
416213
416559
416925
417281
417629
417972
418316
418651
419006
419373
419721
420064
420406
420736
421105
421463
421811
422164
422502
422836
423183
423542
423900
424249
424587
424922
425279
425637
425987
426336
426675
427019
427358
427713
428082
428431
428774
429114
429453
429820
430177
430527
430878
431224
431558
431917
432286
432645
432996
433335
433682
434046
434406
434763
435112
435460
435794
436148
436522
436880
437228
437568
437903
438259
438618
438974
439325
439668
440008
440348
440715
441077
441426
441770
442110
442457
442814
443172
443524
443872
444215
444552
444918
445284
445636
445981
446321
446665
447026
447390
447745
448099
448445
448781
449141
449509
449866
450214
450556
450902
451256
451616
451972
452324
452674
453008
453359
453733
454091
454434
454777
455120
455465
455827
456184
456539
456887
457220
457560
457923
458284
458635
458973
459316
459658
460015
460373
460727
461079
461416
461749
462112
462473
462822
463163
463506
463844
464197
464562
464916
465271
465612
465944
466296
466663
467025
467375
467721
468070
468418
468782
469142
469499
469850
470192
470536
470909
471278
471622
471973
472324
472669
473031
473397
473758
474105
474446
474784
475145
475514
475860
476208
476559
476891
477252
477609
477964
478315
478654
478987
479350
479712
480065
480415
480758
481097
481455
481814
482182
482536
482873
483213
483567
483942
484302
484652
485009
485350
485698
486063
486426
486783
487129
487472
487826
488197
488557
488913
489265
489610
489957
490319
490691
491047
491391
491733
492077
492452
492810
493160
493514
493850
494188
494548
494906
495266
495609
495951
496292
496652
497015
497370
497714
498063
498399
498748
499122
499481
499828
500175
500510
500875
501243
501596
501953
502303
502639
502986
503353
503716
504069
504417
504761
505113
505480
505840
506196
506550
506897
507243
507620
507992
508350
508703
509045
509401
509774
510135
510495
510852
511196
511538
511906
512272
512626
512974
513316
513666
514028
514386
514740
515091
515435
515776
516143
516512
516866
517211
517554
517899
518258
518625
518982
519335
519680
520017
520376
520747
521106
521455
521799
522146
522501
522866
523225
523583
523932
524267
524632
525002
525357
525714
526056
526401
526760
527125
527489
527850
528196
528534
528894
529265
529626
529977
530319
530667
531012
531371
531736
532090
532437
532779
533124
533493
533856
534204
534551
534901
535243
535609
535978
536336
536688
537028
537368
537736
538104
538459
538807
539163
539501
539863
540231
540589
540947
541289
541630
541997
542365
542717
543069
543425
543765
544130
544500
544864
545217
545562
545904
546264
546645
547002
547357
547721
548063
548423
548802
549161
549519
549864
550210
550544
550934
551290
551671
551924
552422
552615
553124
553376
553872
554101
554578
554820
554984
555071
555195
555315
555440
555654
555779
555904
556023
556240
556483
556724
556956
557070
557247
557637
557977
558087
558676
559480
559824
560033
560281
560777
561364
561999
562235
562571
562973
563078
563607
563804
564150
564736
564808
565123
565693
565904
566002
566084
566807
567496
567577
567768
568160
569086
569568
569609
569721
569812
570118
570439
570812
571101
571286
571781
571993
572359
572639
572928
573137
573455
573730
573889
574395
574771
574866
574951
575152
575249
575468
575652
576119
576407
576607
577005
577395
577820
578183
578953
579378
579730
580029
580343
580913
581172
581342
581877
582184
582342
582506
582720
582919
583219
583521
583799
584312
584973
585357
585770
586257
586329
586681
586863
586967
587505
587981
588529
588778
589062
589297
589414
589552
589685
590591
591410
592841
593283
593701
594136
594554
594962
595358
595771
596198
596605
597010
597405
597798
598212
598639
599051
599450
599834
600244
600662
601061
601451
601832
602202
602590
602977
603350
603706
604046
604400
604759
605108
605456
605790
606125
606448
606786
607137
607462
607783
608093
608398
608716
609048
609369
609679
609994
610305
610598
610906
611228
611548
611865
612167
612465
613018
613424
613749
614295
614713
615027
615365
615722
616064
616403
616736
617062
617428
617767
618114
618463
618819
619171
619537
619910
620290
620664
621017
621383
621756
622143
622515
622880
623250
623588
623947
624333
624691
625045
625381
625712
626064
626413
626746
627086
627413
627731
628034
628364
628699
629032
629343
629617
629932
630158
630470
630704
630908
631191
631419
631608
631789
631959
632128
632288
632460
632637
632819
632996
633170
633346
633519
633691
633860
634028
634200
634372
634555
634739
634927
635111
635291
635473
635661
635845
636021
636190
636359
636523
636706
636892
637082
637264
637450
637626
637808
637988
638161
638338
638512
638674
638847
639029
639225
639412
639590
639760
639944
640117
640307
640475
640645
640812
640983
641163
641362
641545
641726
641905
642084
642254
642431
642604
642783
642959
643133
643307
643495
643676
643858
644040
644224
644402
644580
644747
644922
645092
645272
645446
645631
645817
646008
646190
646376
646544
646722
646906
647091
647256
647431
647614
647806
647988
648165
648354
648544
648728
648898
649079
649260
649430
649600
649796
