188
424
658
888
1112
1334
1551
1771
1997
2234
2475
2704
2931
3163
3387
3617
3843
4059
4290
4527
4765
5008
5244
5478
5700
5927
6144
6373
6619
6863
7103
7338
7569
7802
8038
8261
8491
8724
8965
9202
9428
9664
9905
10136
10371
10598
10842
11097
11350
11593
11829
12065
12302
12527
12755
13005
13245
13487
13718
13951
14185
14411
14637
14847
15074
15316
15551
15778
16017
16245
16471
16689
16908
17144
17379
17617
17846
18074
18301
18520
18747
18973
19147
19402
19638
19872
20106
20333
20557
20778
20994
21209
21431
21666
21910
22157
22387
22616
22838
23064
23289
23501
23730
23958
24167
24415
24640
24870
25096
25312
25495
25735
25967
26207
26442
26670
26890
27115
27337
27553
27761
27983
28217
28450
28678
28901
29131
29356
29573
29783
29998
30222
30456
30690
30922
31153
31381
31611
31834
32057
32299
32544
32787
33027
33260
33492
33720
33919
34170
34388
34620
34855
35096
35331
35557
35782
36001
36169
36407
36640
36875
37115
37340
37572
37794
38015
38241
38461
38675
38897
39128
39363
39586
39811
40039
40258
40476
40683
40906
41140
41377
41610
41832
42056
42274
42450
42708
42930
43169
43414
43641
43887
44122
44356
44580
44802
45013
45237
45467
45701
45935
46164
46387
46606
46825
47049
47268
47496
47736
47967
48197
48427
48655
48882
49109
49323
49551
49780
50016
50257
50485
50713
50934
51160
51385
51595
51833
52079
52317
52551
52778
53006
53231
53409
53649
53869
54094
54319
54545
54771
54999
55227
55446
55664
55875
56105
56344
56576
56743
56984
57213
57433
57650
57861
58085
58315
58549
58781
59010
59236
59466
59687
59909
60120
60344
60579
60817
61055
61290
61515
61738
61962
62192
62422
62662
62908
63148
63384
63622
63860
64096
64330
64547
64781
65017
65256
65499
65727
65954
66173
66395
66613
66839
67079
67324
67554
67780
68009
68238
68468
68689
68908
69135
69367
69555
69816
70045
70276
70496
70711
70919
71146
71392
71635
71875
72103
72337
72569
72792
73021
73246
73479
73717
73949
74182
74413
74641
74870
75088
75299
75531
75767
76007
76250
76481
76716
76937
77162
77391
77611
77846
78077
78311
78545
78768
78992
79214
79425
79631
79846
80073
80302
80529
80746
80961
81173
81386
81601
81807
82029
82264
82491
82717
82931
83149
83368
83580
83791
83991
84212
84440
84662
84889
85110
85334
85546
85747
85969
86181
86412
86641
86872
87090
87307
87528
87742
87959
88178
88392
88617
88842
89068
89297
89519
89737
89953
90162
90363
90575
90793
91016
91237
91449
91658
91866
92071
92278
92487
92682
92895
93045
93285
93503
93707
93915
94118
94325
94524
94716
94915
95087
95329
95547
95752
95955
96120
96343
96539
96730
96922
97124
97337
97541
97749
97947
98146
98347
98550
98744
98938
99119
99322
99531
99735
99939
100141
100346
100542
100736
100924
101115
101305
101509
101710
101914
102112
102307
102498
102695
102884
103077
103267
103453
103649
103842
104047
104252
104455
104656
104850
105044
105231
105423
105609
105806
106010
106215
106423
106616
106813
107006
107198
107336
107543
107735
107939
108141
108340
108536
108738
108931
109129
109320
109512
109700
109880
110016
110230
110442
110655
110851
111042
111234
111426
111617
111805
111988
112183
112388
112537
112747
112953
113148
113346
113544
113735
113928
114111
114296
114492
114698
114898
115105
115302
115505
115702
115898
116087
116280
116483
116689
116900
117105
117316
117515
117720
117919
118089
118322
118515
118718
118925
119136
119350
119564
119769
119975
120166
120362
120564
120758
120967
121176
121391
121596
121795
121991
122187
122329
122568
122760
122953
123148
123360
123568
123771
123972
124129
124366
124560
124755
124942
125083
125302
125516
125722
125927
126074
126283
126482
126689
126872
127068
127260
127466
127670
127845
128068
128267
128471
128672
128802
129033
129223
129409
129610
129813
130025
130234
130436
130593
130820
131014
131206
131397
131594
131796
132006
132202
132404
132600
132797
132955
133180
133379
133566
133762
133963
134170
134380
134579
134787
134990
135183
135379
135537
135752
135952
136158
136370
136578
136781
136977
137171
137367
137565
137759
137904
138129
138331
138535
138742
138886
139102
139305
139508
139698
139890
140068
140262
140458
140673
140871
141076
141262
141427
141643
141837
142030
142217
142372
142608
142819
143024
143226
143428
143638
143835
144018
144224
144414
144615
144823
145030
145243
145455
145657
145859
146058
146260
146464
146665
146879
147104
147318
147536
147752
147966
148122
148380
148601
148804
149021
149238
149463
149692
149905
150122
150284
150528
150741
150940
151162
151387
151618
151771
151901
152034
152164
152300
152434
152568
152703
152834
152968
153096
153228
153370
153510
153653
153797
153934
154072
154201
154425
154644
154852
155054
155251
155466
155695
155856
155980
156200
156421
156637
156853
157073
157293
157513
157741
157981
158221
158458
158694
158923
159125
159368
159581
159814
160053
160291
160532
160755
160980
161204
161432
161656
161881
162118
162345
162594
162827
163062
163298
163534
163758
163979
164214
164462
164712
164950
165183
165414
165643
165870
166092
166329
166576
166816
167048
167277
167515
167705
167976
168196
168435
168677
168915
169157
169388
169616
169850
170076
170294
170531
170780
171027
171258
171488
171723
171948
172174
172403
172624
172861
173097
173339
173577
173811
173983
174247
174481
174699
174928
175168
175406
175642
175871
176098
176281
176545
176773
176998
177225
177464
177700
177927
178158
178386
178618
178844
179061
179299
179546
179791
180028
180256
180482
180703
180894
181135
181363
181597
181825
182053
182278
182515
182685
182820
183028
183299
183539
183780
184014
184251
184478
184704
184926
185143
185360
185555
185810
186049
186282
186512
186716
186969
187201
187429
187653
187833
188115
188351
188593
188828
189055
189279
189503
189725
189946
190182
190422
190663
190889
191117
191342
191570
191802
192027
192263
192503
192742
192983
193217
193451
193683
193912
194127
194357
194604
194848
195082
195314
195545
195751
195989
196215
196439
196676
196913
197148
197376
197607
197840
198066
198288
198501
198735
198950
199218
199459
199698
199932
200082
200206
200347
200504
200702
200873
201011
201157
201297
201438
201582
201713
201856
201984
202125
202262
202394
202535
202674
202795
202935
203070
203206
203348
203490
203631
203776
203911
204052
204189
204318
204450
204581
204708
204840
204956
205095
205233
205373
205517
205658
205795
205935
206066
206197
206331
206465
206600
206733
206863
206995
207122
207254
207394
207535
207671
207814
207946
208084
208221
208356
208496
208629
208763
208895
209032
209159
209282
209417
209558
209704
209841
209987
210179
210398
210611
210830
211040
211260
211482
211721
211966
212212
212460
212711
212947
213185
213411
213628
213800
214082
214327
214566
214790
215015
215233
215454
215675
215831
215961
216103
216242
216375
216517
216656
216795
216933
217072
217212
217348
217483
217625
217757
217887
218025
218164
218304
218446
218581
218724
218862
218993
219134
219267
219403
219537
219665
219798
219929
220044
220183
220321
220460
220604
220741
220881
221022
221150
221279
221410
221542
221677
221812
221939
222071
222190
222316
222461
222593
222732
222877
223012
223150
223289
223426
223566
223743
223940
224136
224322
224523
224742
224969
225213
225452
225698
225952
226200
226445
226691
226942
227193
227440
227684
227922
228148
228369
228595
228814
229045
229282
229455
229736
229963
230186
230404
230622
230838
231064
231298
231524
231750
231978
232197
232423
232605
232855
233069
233291
233524
233739
233990
234211
234430
234648
234816
235059
235280
235519
235761
235994
236221
236443
236669
236893
237111
237324
237547
237780
237996
238246
238473
238706
238923
239106
239354
239572
239807
240037
240231
240488
240710
240940
241161
241385
241599
241812
242037
242258
242481
242704
242926
243140
243353
243566
243773
243991
244217
244447
244684
244907
245127
245342
245566
245791
246002
246229
246441
246686
246917
247136
247362
247586
247801
248020
248228
248456
248693
248930
249160
249377
249597
249820
250035
250247
250468
250702
250933
251157
251379
251607
251835
252051
252271
252481
252697
252940
253171
253405
253632
253855
254076
254290
254508
254687
254949
255188
255413
255638
255827
256073
256295
256516
256731
256894
257151
257389
257629
257860
258083
258307
258525
258741
258955
259180
259416
259652
259880
260105
260329
260553
260783
261005
261224
261454
261694
261932
262158
262388
262619
262844
263044
263279
263513
263755
263994
264161
264303
264500
264673
264804
264944
265074
265209
265343
265471
265614
265757
265899
266044
266188
266328
266465
266605
266746
266891
267023
267156
267294
267426
267546
267678
267818
267958
268093
268227
268369
268506
268641
268779
268908
269042
269171
269299
269430
269550
269758
269969
270180
270387
270587
270787
270988
271184
271384
271582
271794
271910
272186
272412
272649
272888
273111
273337
273551
273767
273984
274190
274420
274650
274875
275093
275305
275514
275708
275936
276143
276345
276552
276766
276986
277199
277405
277616
277828
278030
278229
278422
278635
278860
279079
279230
279477
279691
279899
280109
280270
280499
280724
280958
281201
281436
281667
281909
282127
282361
282586
282805
283041
283272
283505
283739
283967
284195
284415
284639
284858
285010
285224
285400
285545
285692
285834
285969
286109
286245
286390
286522
286657
286791
286922
287043
287180
287315
287458
287596
287743
287891
288033
288163
288304
288427
288553
288682
288898
289139
289352
289570
289791
289998
290218
290426
290644
290870
291041
291306
291523
291759
292000
292226
292456
292687
292911
293121
293351
293569
293806
294043
294221
294494
294726
294954
295169
295392
295608
295836
296065
296294
296523
296753
296981
297200
297423
297645
297858
298088
298327
298567
298806
299032
299262
299483
299709
299934
300163
300400
300638
300876
301109
301341
301570
301779
302025
302248
302487
302734
302980
303215
303445
303677
303886
304146
304375
304611
304852
305083
305309
305530
305759
305990
306213
306425
306652
306884
307103
307342
307575
307810
308030
308204
308458
308675
308905
309138
309370
309592
309809
310032
310250
310399
310605
310768
310899
311037
311179
311317
311453
311591
311736
311876
312018
312151
312291
312428
312557
312752
313002
313223
313450
313673
313894
314100
314311
314517
314725
314937
315139
315360
315583
315807
316029
316248
316468
316685
316904
317098
317316
317533
317761
317984
318222
318445
318663
318883
319086
319317
319535
319764
319992
320170
320433
320655
320879
321062
321310
321523
321735
321958
322191
322418
322643
322871
323086
323303
323518
323730
323941
324182
324415
324637
324856
325052
325286
325505
325716
325920
326134
326357
326575
326796
327015
327227
327439
327641
327850
328055
328268
328495
328727
328957
329180
329401
329619
329848
330074
330288
330520
330706
330981
331219
331454
331682
331908
332129
332344
332566
332746
333031
333267
333491
333711
333933
334155
334371
334584
334798
335044
335273
335501
335724
335954
336179
336404
336621
336839
337079
337316
337554
337784
338012
338238
338452
338625
338869
339102
339338
339569
339800
340025
340248
340470
340693
340916
341124
341350
341583
341823
342062
342288
342502
342740
342963
343182
343413
343599
343893
344139
344378
344607
344842
345081
345308
345539
345778
346017
346255
346458
346703
346932
347154
347383
347528
347805
348063
348305
348489
348741
348975
349210
349431
349648
349884
350125
350372
350610
350847
351092
351290
351549
351774
352005
352246
352488
352730
352973
353208
353440
353664
353890
354116
354350
354588
354818
355047
355274
355492
355684
355933
356148
356380
356617
356863
357112
357343
357580
357809
358041
358268
358496
358754
359009
359254
359462
359722
359963
360207
360431
360607
360878
361129
361368
361599
361832
362062
362283
362503
362720
362957
363199
363432
363666
363892
364117
364345
364574
364791
365030
365268
365511
365753
365993
366234
366466
366686
366881
367128
367364
367607
367845
368044
368299
368525
368750
368978
369186
369428
369665
369903
370135
370359
370591
370814
371035
371245
371465
371692
371931
372169
372397
372620
372840
373060
373281
373493
373727
373966
374195
374423
374641
374866
375087
375301
375519
375724
375948
376179
376410
376640
376862
377084
377306
377522
377740
377973
378212
378448
378678
378903
379128
379350
379576
379775
380010
380243
380478
380709
380934
381170
381399
381625
381843
382055
382284
382517
382754
382988
383208
383430
383643
383864
384087
384296
384520
384747
384977
385206
385425
385654
385879
386046
386287
386504
386734
386972
387210
387442
387665
387888
388108
388328
388544
388773
389014
389248
389482
389707
389936
390163
390380
390599
390809
391033
391265
391493
391727
391954
392175
392387
392610
392824
393075
393320
393561
393787
394010
394242
394465
394688
394910
395123
395324
395571
395804
396035
396258
396418
396673
396892
397106
397319
397545
397782
398017
398240
398464
398683
398903
399125
399336
399561
399786
400021
400257
400481
400713
400942
401169
401391
401603
401837
402080
402319
402552
402774
402953
403212
403437
403655
403855
404112
404349
404584
404812
405016
405277
405502
405722
405938
406169
406403
406636
406867
407074
407313
407532
407750
407967
408195
408426
408663
408893
409117
409348
409576
409803
410031
410234
410482
410715
410953
411194
411420
411646
411870
412093
412309
412536
412776
413021
413254
413481
413709
413939
414112
414367
414592
414821
415052
415288
415520
415747
415974
416193
416358
416606
416838
417079
417314
417547
417767
417996
418220
418438
418662
418885
419118
419356
419592
419830
420066
420294
420524
420743
420959
421192
421426
421668
421907
422134
422363
422583
422806
422973
423229
423464
423697
423934
424169
424393
424625
424839
425078
425293
425521
425697
425971
426219
426450
426676
426899
427120
427343
427564
427784
428038
428275
428506
428699
428959
429192
429413
429626
429853
430084
430319
430553
430780
431012
431231
431454
431671
431888
432126
432362
432602
432776
433025
433261
433482
433709
433929
434159
434395
434624
434863
435098
435326
435549
435755
435989
436209
436439
436653
436916
437150
437384
437610
437835
438062
438281
438516
438748
438970
439223
439448
439681
439910
440140
440360
440581
440819
441004
441285
441517
441743
441966
442184
442401
442619
442850
443028
443301
443539
443762
443990
444221
444442
444659
444872
445101
445340
445570
445793
446029
446248
446466
446679
446891
447123
447352
447587
447814
448039
448268
448487
448679
448930
449143
449373
449603
449835
450069
450293
450519
450734
450952
451163
451381
451612
451848
452080
452305
452527
452747
452973
453195
453406
453598
453855
454086
454317
454542
454769
454994
455212
455432
455646
455876
456117
456351
456582
456804
457028
457248
457474
457687
457921
458154
458387
458616
458845
459079
459299
459520
459733
459945
460177
460406
460639
460870
461023
461258
461480
461694
461911
462127
462352
462582
462809
463037
463264
463490
463715
463942
464155
464385
464620
464864
465060
465327
465565
465788
466010
466236
466452
466688
466929
467144
467392
467614
467839
468066
468287
468504
468731
468971
469216
469449
469625
469902
470132
470358
470576
470799
471039
471276
471515
471738
471963
472194
472416
472643
472863
473098
473342
473577
473816
474057
474254
474506
474730
474950
475182
475415
475658
475903
476132
476363
476587
476813
477042
477262
477487
477725
477958
478192
478417
478612
478865
479093
479311
479482
479756
480005
480245
480471
480699
480922
481146
481365
481585
481819
482057
482288
482515
482741
482970
483197
483420
483635
483862
484101
484341
484581
484813
485052
485283
485509
485724
485959
486203
486441
486680
486908
487138
487364
487588
487819
488044
488278
488518
488758
488998
489235
489467
489691
489915
490133
490363
490606
490846
491089
491318
491545
491750
492009
492232
492465
492703
492944
493182
493408
493647
493879
494100
494325
494540
494775
495020
495263
495496
495720
495947
496179
496399
496616
496854
497092
497329
497559
497785
498018
498242
498465
498677
498896
499131
499364
499603
499836
500060
500288
500508
500731
500950
501181
501417
501648
501881
502110
502290
502549
502775
502992
503210
503385
503648
503894
504130
504358
504585
504811
505032
505247
505482
505721
505961
506199
506376
506635
506872
507106
507326
507496
507752
507995
508233
508407
508663
508905
509131
509353
509568
509803
510049
510286
510525
510750
510973
511199
511423
511642
511870
512103
512345
512578
512807
513038
513259
513485
513703
513918
514153
514388
514632
514874
515102
515330
515553
515781
516004
516233
516471
516706
516943
517173
517398
517628
517855
518078
518294
518524
518765
519011
519248
519482
519709
519938
520168
520383
520601
520864
521101
521338
521561
521791
522021
522244
522462
522684
522915
523157
523391
523624
523856
524081
524307
524523
524739
524976
525214
525453
525680
525905
526131
526349
526577
526792
526990
527246
527483
527718
527949
528180
528407
528627
528847
529062
529294
529534
529771
530007
530231
530455
530677
530882
531119
531346
531582
531820
532054
532279
532510
532740
532969
533188
533403
533639
533883
534125
534360
534584
534807
535020
535246
535462
535688
535927
536160
536391
536612
536840
537071
537292
537514
537730
537958
538195
538433
538666
538895
539119
539344
539567
539786
540025
540265
540505
540740
540936
541195
541425
541649
541876
542038
542311
542554
542798
543035
543264
543489
543712
543933
544149
544384
544624
544862
545093
545322
545552
545730
545986
546212
546442
546678
546919
547160
547394
547629
547865
548093
548314
548532
548776
549024
549263
549497
549686
549951
550181
550411
550559
550776
550949
551099
551249
551397
551544
551698
551916
552206
552440
552659
552875
553110
553343
553574
553806
554028
554252
554467
554690
554911
555142
555337
555607
555848
556082
556312
556543
556775
556996
557175
557442
557685
557931
558162
558391
558612
558838
559049
559275
559511
559757
559995
560178
560438
560670
560898
561093
561335
561559
561797
562040
562279
562516
562751
562983
563216
563439
563662
563909
564152
564393
564621
564852
565086
565266
565526
565750
565982
566150
566416
566661
566894
567124
567353
567575
567796
568017
568234
568493
568732
568965
569198
569421
569645
569877
570098
570331
570566
570803
571041
571267
571501
571736
571959
572172
572398
572635
572861
573112
573340
573564
573788
574013
574236
574456
574691
574873
575154
575392
575621
575855
576083
576309
576521
576754
576952
577213
577448
577674
577837
578065
578285
578499
578709
578936
579164
579395
579621
579837
580059
580273
580489
580705
580913
581137
581361
581571
581817
582043
582263
582475
582650
582894
583104
583335
583566
583797
584019
584237
584454
584672
584889
585096
585314
585537
585763
585997
586219
586444
586668
586866
587101
587307
587535
587773
587978
588236
588459
588686
588906
589120
589341
589553
589782
590008
590236
590460
590681
590883
591121
591340
591552
591760
591971
592215
592446
592673
592889
593107
593318
593532
593745
593965
594193
594420
594653
594878
595099
595322
595536
595752
595950
596164
596379
596601
596824
597037
597252
597456
597660
597867
598063
598273
598487
598676
598917
599135
599340
599548
599759
599967
600176
600377
600599
600823
601050
601277
601433
601681
601902
602119
602329
602536
602760
602990
603216
603408
603640
603858
604073
604226
604474
604689
604909
605138
605356
605584
605808
605994
606241
606455
606674
606887
607109
607346
607576
607802
608018
608235
608447
608662
608863
609086
609310
609527
609707
609956
610176
610399
610620
610842
611053
611270
611498
611687
611956
612179
612398
612612
612823
613037
613238
613449
613681
613902
614125
614340
614510
614752
614974
615192
615396
615615
615841
616071
616303
616527
616758
616979
617130
617340
617505
617643
617795
617949
618162
618348
618500
618648
618860
619036
619176
619321
619466
619607
619739
619882
620034
620186
620397
620691
620925
621149
621344
621565
621776
621985
622156
622414
622662
622892
623115
623340
623570
623801
623999
624242
624480
624722
624962
625196
625432
625667
625893
626118
626342
626588
626842
627034
627313
627557
627798
628031
628266
628497
628738
628934
629216
629458
629701
629936
630174
630403
630629
630870
631123
631370
631611
631775
631981
632151
632290
632432
632574
632716
632934
633244
633488
633724
633957
634189
634421
634617
634863
635099
635343
635590
635834
636065
636299
636514
636748
636967
637203
637444
637684
637923
638155
638389
638622
638853
639083
639304
639491
639774
640020
640259
640496
640730
640962
641191
641418
641667
641917
642170
642411
642616
642876
643105
643337
643567
643803
644044
644275
644473
644739
644967
645193
645352
645601
645839
646073
646318
646562
646793
647033
647264
647441
647714
647945
648193
648433
648671
648910
649147
649386
649625
649855
