46
247
469
610
864
1079
1295
1584
1816
2026
2247
2506
2747
2985
3244
3462
3672
4149
4379
4592
4823
5122
5360
5629
5825
6090
6361
6738
6945
7185
7411
7615
7840
8107
8397
8666
8874
9101
9413
9676
9897
10246
10496
10747
10951
11425
11668
11921
12165
12374
12787
13014
13198
13450
13721
13975
14194
14447
14664
14952
15182
15411
15640
15872
16123
16349
16603
16843
16998
17257
17519
17785
18052
18255
18511
18745
18976
19353
19552
19765
20032
20272
20508
20689
21045
21244
21441
21636
21837
22081
22354
22616
22874
23182
23436
23688
23937
24191
24429
24698
24966
25190
25388
25844
26101
26306
26512
26778
27109
27363
27577
27823
28097
28330
28617
28884
29133
29411
29659
29906
30202
30446
30681
30953
31148
31421
31633
31914
32149
32337
32550
32803
33081
33336
33603
33868
34128
34377
34604
34798
35068
35363
35693
35912
36164
36417
36641
36886
37117
37326
37609
37873
38131
38367
38600
38849
39064
39339
39553
39834
40108
40325
40535
40775
41044
41297
41562
41814
42046
42286
42485
42678
42916
43112
43343
43547
43797
44130
44368
44606
45050
45201
45511
45664
45979
46233
46432
46664
46852
47108
47354
47576
47824
48098
48293
48511
48834
49085
49312
49514
49679
49994
50285
50556
50809
51055
51320
51517
51810
52082
52366
52609
52917
53166
53418
53663
53962
54242
54550
54779
54995
55230
55540
55793
56056
56307
56595
56868
57125
57369
57596
57849
58090
58359
58570
58836
59063
59399
59607
59876
60115
60358
60562
60760
61014
61270
61523
61787
62016
62248
62471
62708
62976
63207
63475
63713
63943
64215
64464
64767
64988
65236
65518
65804
66035
66298
66621
66819
67075
67328
67569
67836
68115
68356
68561
68819
69076
69299
69523
69747
70013
70287
70531
70790
71023
71279
71504
71724
71933
72236
72564
72789
73013
73221
73461
73709
73991
74248
74468
74827
75067
75273
75475
75660
75953
76221
76444
76683
76895
77148
77346
77536
77794
78032
78274
78518
78763
78984
79162
79474
79715
79955
80209
80459
80900
81182
81392
81641
81872
82095
82386
82679
82913
83125
83390
83664
83918
84025
84318
84522
84783
85058
85325
85572
85817
86072
86310
86533
86736
87125
87399
87674
87884
88144
88390
88631
88853
89069
89311
89595
89894
90159
90364
90586
90853
91117
91358
91583
91834
92135
92399
92809
93008
93257
93664
93918
94182
94475
94705
95045
95278
95572
95837
96094
96393
96618
96776
97089
97336
97575
97830
98075
98383
98560
98786
99067
99315
99568
99828
100032
100266
100553
100732
100973
101235
101454
101654
101906
102138
102379
102643
102916
103163
103439
103649
103884
104136
104422
104722
104953
105184
105422
105701
105945
106153
106380
106505
106820
107086
107311
107520
107730
107977
108191
108651
108834
109056
109299
109542
109762
110001
110251
110506
110764
110991
111258
111530
111761
111996
112264
112492
112700
112949
113161
113369
113609
113920
114179
114390
114587
114764
115059
115326
115557
115793
116222
116463
116696
116906
117159
117507
117758
117987
118304
118540
118785
119014
119262
119496
119681
119975
120181
120409
120748
121053
121305
121556
121832
122078
122360
122591
122834
123067
123287
123508
123816
124049
124291
124524
124821
125092
125306
125569
125823
126119
126396
126636
126884
127159
127407
127641
127872
128131
128418
128617
128868
129304
129518
129752
130012
130272
130548
130817
131144
131500
131751
132009
132270
132533
132803
133043
133334
133630
133886
134086
134378
134639
134892
135167
135397
135642
135849
136089
136331
136660
136902
137185
137433
137677
137922
138149
138408
138662
138926
139282
139524
139774
140028
140247
140542
140827
141102
141355
141647
141916
142191
142382
142611
142862
143101
143387
143663
143935
144197
144443
144667
144914
145124
145412
145703
145934
146192
146400
146619
146833
147034
147242
147570
147829
148098
148332
148543
148778
149012
149232
149556
149824
150046
150312
150569
150817
151028
151243
151452
151613
151746
152053
152190
152333
152601
153058
153290
153494
153753
154042
154308
154549
154772
155021
155394
155635
155901
156156
156441
156696
156933
157173
157394
157605
157818
158032
158306
158546
158946
159206
159473
159731
159932
160175
160436
160719
160977
161209
161475
161698
161930
162162
162436
162697
163125
163357
163591
163847
164219
164442
164739
165012
165279
165491
165691
165925
166187
166466
166682
166880
167124
167375
167621
167892
168193
168442
168682
168949
169216
169447
169712
170051
170224
170469
170853
171115
171378
171589
171825
172095
172356
172568
172814
173038
173289
173592
173841
174185
174587
174838
175105
175368
175601
175904
176165
176401
176601
176961
177142
177397
177701
177980
178230
178490
178744
178931
179271
179496
179934
180186
180449
180678
180962
181211
181438
181639
181862
182156
182450
182745
182979
183192
183430
183680
183944
184220
184448
184717
184965
185115
185456
185616
185884
186182
186466
186725
186970
187196
187401
187641
187887
188125
188382
188673
188909
189191
189451
189673
189967
190206
190427
190675
190937
191204
191488
191761
192033
192273
192500
192778
193063
193297
193543
193761
193976
194425
194927
195169
195394
195655
195917
196134
196331
196586
196843
197100
197372
197600
197822
198074
198288
198437
198732
198953
199203
199441
199706
199937
200200
200443
200689
200919
201286
201522
201792
202036
202480
202696
202923
203171
203394
203665
203943
204183
204394
204620
204870
205135
205354
205574
205799
206064
206315
206569
206783
207027
207231
207469
207786
208059
208323
208596
208873
209115
209336
209585
209842
210169
210417
210674
210945
211201
211436
211779
212026
212250
212499
212793
213151
213463
213738
213997
214218
214477
214790
215055
215285
215482
215714
216019
216157
216414
216656
217077
217291
217550
217842
218043
218279
218664
218919
219159
219414
219869
220083
220275
220441
220673
220956
221235
221514
221783
221991
222248
222448
222662
222827
222923
223257
223509
223756
224020
224259
224476
224731
224995
225213
225474
225729
226039
226316
226560
226812
227074
227367
227603
227939
228150
228405
228667
228895
229092
229330
229585
229855
230098
230306
230525
230720
230974
231190
231381
231512
231781
232013
232239
232487
232682
232876
233100
233348
233608
233873
234112
234374
234618
234862
235055
235264
235498
235856
236086
236406
236699
236997
237225
237461
237710
237962
238278
238556
238806
239042
239278
239513
239741
239930
240169
240407
240641
240930
241200
241432
241663
241913
242116
242567
242842
243146
243407
243631
243832
244120
244378
244595
244893
245131
245335
245590
245814
245999
246280
246510
246779
247109
247344
247665
247924
248207
248355
248638
248883
249212
249475
249693
249982
250217
250455
250705
250951
251204
251496
251742
251999
252234
252477
252716
252966
253208
253453
253697
253920
254182
254427
254644
254908
255140
255454
255732
255968
256176
256451
256718
256939
257168
257424
257658
257904
258173
258403
258645
258873
259115
259373
259603
259813
260062
260326
260573
260798
261022
261277
261527
261719
261943
262156
262534
262677
262933
263197
263411
263666
263940
264222
264500
264748
265012
265213
265446
265664
265909
266251
266506
266725
266978
267221
267536
267793
268116
268390
268605
268891
269127
269403
269624
269873
270119
270360
270568
270816
271136
271383
271617
271843
272084
272318
272553
272798
273029
273324
273561
273936
274196
274457
274751
275024
275261
275562
275816
276037
276253
276538
276795
277056
277308
277516
277849
277978
278197
278418
278674
278922
279163
279389
279584
279821
280013
280334
280496
280745
280994
281252
281498
281757
281986
282219
282493
282701
282961
283175
283395
283677
283943
284234
284531
284810
285065
285284
285516
285766
286037
286284
286556
286821
287056
287192
287383
287619
287851
288089
288301
288748
289040
289378
289604
289839
290123
290387
290636
290840
291136
291441
291673
291913
292193
292440
292778
293036
293282
293517
293776
293991
294258
294495
294750
295045
295308
295566
295795
296029
296280
296562
296824
297104
297333
297561
297759
297892
298130
298326
298592
298807
298966
299123
299419
299686
299955
300218
300459
300714
300969
301173
301426
301682
301945
302196
302463
302692
302906
303139
303397
303627
303957
304178
304413
304654
304930
305186
305410
305681
305909
306120
306387
306536
306773
307018
307273
307537
307812
308066
308316
308529
308863
309083
309331
309587
309825
310079
310350
310604
310869
311037
311296
311627
311881
312111
312363
312602
312831
313077
313331
313554
313827
314094
314381
314618
314841
315099
315323
315558
315842
316013
316266
316662
316909
317170
317472
317702
317951
318160
318402
318617
318881
319139
319387
319634
319878
320136
320383
320656
320945
321124
321363
321650
321875
322106
322418
322692
322897
323159
323478
323713
323960
324191
324439
324655
324897
325097
325411
325648
325846
326098
326299
326526
326754
327010
327274
327502
327755
327991
328225
328489
328816
329082
329320
329561
329777
329997
330216
330415
330659
330873
331101
331381
331670
331900
332154
332395
332607
332885
333107
333405
333571
333851
334071
334303
334565
334816
335187
335422
335670
335963
336213
336456
336742
336946
337346
337604
337897
338152
338435
338652
338875
339117
339356
339857
340133
340354
340776
341001
341221
341448
341632
341896
342163
342410
342603
342848
343091
343421
343640
343878
344100
344340
344569
344822
345085
345346
345583
345782
345981
346186
346524
346672
346907
347162
347390
347614
347803
348034
348337
348541
348776
349049
349265
349745
349896
350206
350373
350643
350914
351158
351368
351634
351906
352111
352363
352596
352901
353139
353393
353649
353882
354151
354397
354595
354853
355091
355405
355671
355888
356135
356363
356604
356843
357079
357298
357592
357877
358134
358387
358607
358815
359051
359285
359550
359804
360055
360308
360720
360927
361187
361533
361814
362070
362410
362606
362854
363112
363380
363629
363912
364161
364416
364638
364892
365132
365378
365640
365877
366098
366212
366556
366703
367040
367194
367436
367670
367809
368075
368232
368491
368789
368932
369270
369417
369712
369887
370130
370396
370615
370892
371169
371429
371642
371900
372182
372458
372717
372962
373220
373467
373730
373905
374141
374442
374707
374964
375244
375556
375820
376060
376329
376631
376849
377114
377241
377473
377714
377938
378266
378528
378811
379102
379373
379558
379813
380039
380260
380508
380804
380956
381190
381437
381696
381924
382113
382351
382612
382881
383196
383479
383738
384010
384277
384527
384752
384949
385189
385457
385714
386038
386378
386622
386863
387119
387406
387688
387940
388197
388393
388696
388957
389197
389343
389687
389859
390003
390234
390492
390787
391089
391242
391765
392026
392295
392578
392815
393093
393317
393635
393887
394181
394435
394667
394926
395176
395432
395674
395903
396197
396465
396705
396934
397101
397330
397527
397805
397989
398308
398466
398674
399004
399164
399281
399595
399850
400226
400389
400690
401035
401308
401568
401937
402173
402466
402757
403014
403275
403543
403773
404012
404215
404440
404730
405002
405270
405543
405823
406025
406268
406551
406819
407157
407379
407596
407798
408004
408296
408586
408820
409044
409303
409568
409798
410067
410322
410601
410879
411108
411340
411746
412017
412299
412508
412812
413089
413305
413520
413793
414051
414317
414560
414781
415023
415234
415516
415767
415969
416200
416466
416701
416940
417386
417639
417941
418176
418427
418878
419140
419367
419595
419857
420118
420404
420651
420919
421160
421424
421735
421953
422230
422505
422761
423051
423325
423574
423857
424128
424410
424607
424879
425139
425363
425581
425712
426021
426190
426536
426851
427098
427351
427601
427848
428088
428240
428573
428839
429089
429302
429512
429730
429923
430149
430443
430712
430996
431317
431544
431760
431998
432217
432536
432782
433053
433328
433601
433849
434083
434332
434614
434887
435092
435364
435570
435802
436035
436287
436640
436877
437137
437402
437644
437892
438146
438399
438655
438876
439099
439387
439715
439936
440153
440367
440794
441008
441260
441523
441757
442054
442300
442515
442745
442997
443251
443477
443734
443983
444254
444508
444744
444954
445155
445352
445711
445876
446165
446549
446779
447000
447230
447481
447726
447974
448229
448510
448805
449072
449295
449526
449793
450080
450352
450575
450826
451238
451494
451714
451956
452200
452456
452725
452954
453213
453424
453680
453945
454239
454487
454689
454950
455189
455485
455739
456102
456359
456735
456972
457198
457408
457614
457867
458103
458335
458551
458791
459026
459261
459492
459712
459908
460114
460555
460747
461027
461294
461524
461783
462273
462540
462942
463206
463443
463716
463980
464244
464463
464774
465085
465299
465546
465814
466069
466340
466543
466775
467001
467246
467467
467715
468103
468373
468611
468853
469140
469435
469709
469975
470232
470470
470662
470883
471104
471338
471584
471877
472193
472421
472609
472819
473064
473285
473489
473751
474028
474265
474510
474744
474965
475207
475446
475663
475911
476167
476404
476610
476864
477098
477323
477678
477926
478243
478472
478722
478946
479196
479401
479633
479876
480211
480398
480669
481001
481264
481483
481702
481916
482117
482361
482663
482955
483412
483574
483858
484071
484293
484513
484769
484991
485304
485576
485830
486064
486292
486568
486785
487043
487270
487536
487769
487993
488319
488535
488771
488990
489255
489485
489775
490034
490271
490501
490727
491008
491321
491659
491904
492173
492405
492782
493056
493534
493799
494054
494275
494514
494762
494986
495196
495492
495849
496179
496446
496652
496766
497105
497345
497593
497850
498223
498436
498710
498955
499205
499425
499631
499866
500094
500337
500603
500863
501113
501372
501567
501818
502084
502337
502559
502778
503027
503211
503419
503640
503876
504102
504363
504625
504853
505110
505399
505694
505896
506117
506378
506604
506827
506937
507336
507586
507813
508064
508271
508521
508785
509115
509355
509575
509791
510022
510271
510521
510788
511055
511302
511532
511762
511994
512186
512554
512810
513060
513309
513602
513869
514207
514439
514710
514954
515217
515441
515821
516032
516249
516456
516705
516935
517182
517429
517694
517944
518195
518417
518674
518944
519208
519420
519675
519938
520182
520431
520681
520936
521188
521470
521723
521959
522176
522381
522628
522879
523119
523384
523647
523880
524117
524448
524649
524837
525159
525390
525652
525910
526170
526418
526655
526872
527122
527363
527564
527859
528111
528374
528579
528821
529089
529313
529548
529745
530022
530250
530502
530712
530961
531219
531436
531642
531893
532169
532421
532709
532991
533219
533441
533683
533927
534180
534509
534748
534989
535278
535576
535814
536033
536248
536532
536792
537044
537311
537575
537811
538080
538302
538588
538848
539078
539352
539569
539814
540092
540320
540549
540780
541038
541299
541597
541811
542052
542250
542491
542886
543140
543379
543603
543847
544104
544452
544678
544894
545381
545644
545868
546118
546416
546737
546957
547219
547520
547767
547993
548259
548520
548762
549020
549229
549484
549896
550150
550392
550635
551006
551244
551517
551821
552075
552182
552539
552849
553108
553371
553633
553836
554093
554400
554680
554914
555144
555409
555723
555992
556259
556512
556781
557059
557285
557565
557811
558068
558290
558510
558748
559028
559273
559539
559771
559994
560212
560476
560729
560988
561227
561431
561737
561984
562206
562482
562646
562956
563244
563487
563717
563952
564173
564459
564688
564900
565145
565347
565563
565876
566013
566432
566719
566985
567219
567436
567634
567860
568230
568524
568869
569127
569393
569640
569863
570124
570381
570613
570843
571147
571392
571612
571884
572037
572289
572477
572710
572912
573170
573436
573698
574074
574329
574618
574886
575088
575333
575785
576109
576316
576524
576766
577039
577241
577540
577843
578099
578327
578588
578844
579067
579258
579519
579637
579997
580228
580474
580721
580922
581155
581444
581670
581917
582173
582453
582680
582877
583143
583525
583755
584009
584273
584521
584716
585022
585258
585503
585738
585978
586234
586488
586731
586985
587242
587466
587674
587906
588109
588400
588871
589027
589292
589578
589834
590417
590663
590904
591136
591350
591604
591881
592086
592336
592505
592776
593001
593284
593551
593830
594092
594357
594620
594874
595100
595380
595625
595863
596281
596583
596826
597241
597398
597738
598201
598419
598631
599016
599165
599437
599672
599862
600214
600470
600691
600908
601160
601426
601678
601895
602131
602520
602755
602980
603206
603651
603941
604168
604430
604693
605008
605224
605444
605688
605937
606195
606438
606722
606980
607211
607425
607658
607911
608173
608409
608873
609028
609363
609595
609930
610196
610446
610684
610890
611151
611367
611599
611843
612160
612439
612676
612904
613137
613349
613565
613815
614067
614274
614551
614821
615106
615288
615589
615806
616046
616303
616565
616823
617100
617315
617546
617783
618078
618329
618594
618862
619113
619380
619618
619819
620079
620343
620614
620909
621123
621348
621612
621844
622082
622306
622518
622782
623063
623344
623576
623785
624161
624413
624633
625010
625296
625567
625773
626023
626259
626569
626806
627030
627308
627552
627814
628073
628327
628790
629122
629398
629627
629873
630193
630487
630722
630946
631170
631457
631711
631939
632203
632349
632691
632850
633129
633260
633624
634288
634618
634882
635089
635371
635818
636074
636288
636549
636820
637053
637345
637814
638059
638355
638573
638828
639080
639367
639576
639833
640084
640299
640513
640786
641044
641280
641521
641762
642010
642278
642507
642755
643031
643316
643566
643793
644014
644260
644405
644566
644826
644992
645279
645553
645808
646022
646257
646485
646771
646981
647234
647487
647662
647963
648241
648469
648742
648940
649213
649509
649755
