46
343
658
972
1287
1604
1902
2137
2476
2754
3071
3239
3690
3969
4228
4491
4764
5039
5319
5636
5957
6227
6486
6748
7029
7323
7617
7907
8208
8483
8740
9009
9290
9588
9897
10194
10471
10748
11015
11286
11569
11862
12165
12461
12657
13001
13271
13553
13836
14128
14424
14711
14989
15259
15525
15819
16127
16430
16728
17005
17276
17537
17806
18083
18387
18692
18985
19267
19539
19824
20115
20406
20704
21011
21285
21545
21807
22075
22370
22676
22975
23257
23530
23789
24041
24310
24588
24895
25258
25540
25805
26078
26345
26615
26898
27189
27492
27775
28032
28193
28572
28855
29081
29433
29712
29870
30231
30475
30645
31001
31290
31486
31841
32090
32329
32564
32810
33065
33324
33543
33953
34215
34476
34738
35018
35302
35591
35875
36169
36449
36712
36972
37235
37521
37809
38092
38357
38625
38872
39122
39378
39647
39934
40245
40401
40811
41080
41359
41641
41925
42231
42393
42862
43136
43406
43706
44004
44309
44621
44785
45210
45481
45758
45898
46369
46679
46984
47135
47532
47804
48080
48363
48654
48971
49251
49505
49751
50013
50286
50581
50880
51175
51472
51625
52008
52271
52534
52822
53111
53308
53666
53922
54184
54435
54705
54989
55282
55580
55873
56007
56431
56719
56933
57340
57638
57935
58088
58239
58695
58987
59280
59565
59854
60124
60388
60653
60827
61233
61541
61858
62101
62449
62717
62917
63293
63576
63888
64201
64486
64761
65033
65326
65634
65947
66275
66589
66874
67150
67435
67589
68058
68362
68650
68933
69200
69343
69727
70006
70293
70580
70848
71098
71349
71515
71858
72117
72386
72657
72924
73097
73407
73642
73895
74144
74404
74658
74921
75170
75419
76339
76756
77045
77339
77614
77885
78154
78372
79024
79325
79500
79864
80117
80396
80678
80832
81256
81556
81830
82086
82346
82498
82904
83206
83500
83778
84056
84323
84591
84869
85165
85480
85804
86100
86245
86415
86918
87213
87511
87802
88096
88375
88640
88902
89192
89483
89774
90059
90336
90595
90853
91107
91251
91626
91912
92065
92450
92702
92833
93196
93462
93615
94026
94334
94632
94894
95162
95432
95727
96038
96348
96507
96970
97253
97537
97708
98164
98487
98800
99091
99238
99664
99948
100243
100542
100865
101159
101437
101722
102018
102318
102622
102929
103240
103522
103778
104046
104339
104632
104936
105241
105526
105813
106093
106379
106559
106754
107303
107607
108159
108444
108715
108992
109285
109581
109854
110103
110364
110634
110928
111238
111542
111858
112154
112431
112577
113046
113586
114072
114357
114642
114950
115272
115422
115891
116193
116481
116624
117024
117308
117611
117905
118191
118474
118750
119021
119301
119475
119895
120204
120505
120773
121044
121321
121610
121907
122204
122519
122821
123096
123239
123430
123540
124069
124374
124670
124952
125220
125385
125746
126023
126226
126610
126898
127073
127423
127681
127945
128202
128479
128754
128947
129331
129585
129716
130127
130414
130708
130998
131288
131571
131852
132131
132418
132750
133083
133399
133699
133983
134124
134604
134918
135267
135588
135868
136136
136403
136678
136959
137246
137533
137829
138093
138341
138604
138875
139177
139489
139796
140095
140390
140535
140969
141278
141605
141812
142246
142545
142833
143130
143435
143746
144076
144395
144681
144820
145281
145597
145913
146223
146524
146812
147086
147369
147576
148011
148323
148622
148784
149178
149466
149747
150038
150361
150674
150963
151247
151537
151844
152160
152463
152787
153086
153235
153639
153925
154219
154528
154823
155097
155360
155615
155864
156030
156370
156629
156906
157186
157445
157692
157959
158242
158535
158841
159154
159464
159616
160044
160341
160660
160843
161290
161590
161870
162134
162397
162667
162870
163300
163619
163923
164208
164494
164798
164956
165409
165737
166030
166291
166554
166718
167126
167439
167733
168033
168306
168573
168740
169121
169412
169712
169999
170266
170524
170773
171031
171290
171480
171845
172137
172422
172684
172821
173228
173505
173796
174096
174396
174688
174960
175226
175520
175839
176158
176468
176782
177075
177371
177673
177986
178158
178651
178853
179226
179496
179773
180056
180339
180636
180932
181207
181349
181727
182002
182287
182569
182842
183122
183383
183631
183871
184045
184387
184666
184940
185205
185462
185717
185963
186225
186503
186794
187106
187418
187697
187963
188245
188519
188800
189086
189370
189648
189915
190161
190321
190670
190954
191237
191511
191782
191948
192295
192552
192819
193088
193391
193575
193982
194251
194518
194796
195086
195264
195668
195986
196174
196531
196793
196968
197340
197623
197817
198177
198451
198700
198941
199192
199368
199720
200003
200270
200519
200761
200933
201262
201508
201773
202039
202320
202517
202859
203107
203248
203650
203934
204223
204515
204808
205076
205332
205588
205869
206166
206468
206749
207019
207273
207524
207771
208023
208292
208578
208854
209108
209348
209578
209820
210084
210342
210604
210890
211182
211446
211693
211953
212221
212396
212821
213102
213408
213685
213947
214217
214497
214800
215111
215407
215686
215964
216239
216511
216795
217088
217386
217689
217962
218223
218506
218708
219083
219380
219671
219965
220233
220498
220773
221074
221385
221682
221991
222283
222566
222853
223144
223461
223632
224113
224411
224686
224978
225276
225432
225904
226231
226528
226667
227089
227373
227689
227994
228306
228613
228895
229176
229458
229762
230077
230399
230705
230986
231279
231421
231857
232164
232456
232641
233050
233308
233501
233864
234151
234338
234737
235018
235191
235555
235810
235977
236372
236670
236956
237237
237496
237755
238021
238285
238575
238775
239212
239488
239765
240037
240334
240635
240944
241270
241587
241878
242019
242479
242807
243145
243473
243802
244098
244384
244685
244833
245342
245659
245949
246225
246500
246785
247076
247242
247705
248009
248289
248558
248851
249021
249436
249728
250026
250307
250570
250829
251101
251408
251712
252005
252307
252585
252873
253016
253446
253763
254078
254249
254661
254929
255198
255477
255752
255900
256326
256612
256871
257125
257385
257656
257949
258241
258531
258695
259121
259389
259665
259950
260252
260563
260865
261149
261435
261712
261996
262292
262594
262908
263201
263467
263733
263885
264309
264595
264886
265177
265458
265723
265989
266265
266571
266888
267192
267497
267778
268061
268354
268647
268972
269303
269617
269915
270198
270508
270828
271149
271478
271811
272104
272396
272700
272899
273374
273691
274008
274304
274452
274869
275167
275468
275775
276062
276327
276602
276877
277143
277436
277730
277897
278322
278584
278844
279129
279413
279697
279994
280289
280583
280725
281130
281418
281605
282040
282333
282623
282904
283179
283465
283610
284092
284407
284713
284997
285276
285445
285875
286172
286503
286817
287105
287386
287673
287853
288314
288626
288945
289243
289524
289799
290091
290253
290720
291025
291304
291585
291851
291999
292388
292669
292956
293239
293506
293759
294022
294299
294576
294862
295158
295456
295754
295894
296324
296627
296939
297238
297546
297718
298139
298424
298710
299016
299189
299658
299943
300224
300506
300797
301092
301395
301562
301771
301913
302398
302667
302945
303235
303521
303712
304091
304360
304623
304872
305136
305406
305699
305990
306277
306557
306709
306867
307338
307634
307936
308251
308543
308816
309002
309419
309716
310034
310348
310517
310973
311255
311555
311874
312193
312508
312821
313120
313409
313704
313852
314340
314648
314934
315203
315474
315752
316034
316212
316639
316948
317129
317494
317757
318029
318301
318586
318870
319169
319444
319702
319843
320233
320521
320817
321113
321408
321698
321981
322272
322577
322895
323234
323558
323860
324031
324500
324811
325143
325343
325821
326113
326398
326718
327030
327339
327657
327809
328257
328529
328805
328963
329418
329711
330006
330287
330561
330839
331115
331385
331679
331969
332242
332501
332758
333019
333300
333594
333754
334197
334493
334768
335041
335329
335535
335949
336262
336564
336866
337154
337444
337754
338082
338424
338608
339069
339379
339696
340006
340193
340684
341002
341289
341574
341876
342179
342482
342789
343091
343382
343653
343930
344116
344558
344863
345161
345429
345695
345965
346238
346520
346836
347137
347419
347690
347952
348104
348536
348829
349134
349453
349738
350003
350281
350572
350892
351054
351545
351858
352149
352426
352726
353044
353373
353701
354001
354153
354600
354884
355192
355346
355533
356053
356329
356595
356864
357137
357411
357690
357970
358255
358515
358771
359035
359324
359618
359904
360200
360481
360757
361031
361312
361615
361794
362274
362570
362855
363131
363432
363732
364034
364365
364679
364960
365245
365530
365833
366025
366471
366772
366954
367345
367611
367893
368177
368486
368654
369093
369369
369647
369925
370202
370386
370796
371092
371364
371616
371885
372165
372446
372730
373028
373318
373597
373865
374145
374295
374775
375085
375402
375696
375995
376186
376623
376952
377298
377620
377920
378214
378536
378858
379183
379538
379781
380181
380482
380781
381095
381414
381572
382050
382331
382595
382874
383162
383470
383781
384083
384364
384639
384902
385174
385459
385746
386043
386320
386567
386813
387080
387343
387598
387862
388127
388392
388642
388881
389113
389371
389642
389925
390199
390485
390752
391015
391262
391517
391786
392079
392370
392651
392923
393187
393418
393740
394018
394316
394625
394926
395203
395346
395775
396076
396381
396683
397008
397159
397583
397855
398146
398463
398772
398959
399395
399678
399849
400249
400538
400740
401156
401439
401701
401969
402244
402400
402816
403103
403403
403693
403956
404212
404497
404800
404989
405408
405708
405996
406273
406563
406852
407043
407514
407816
408117
408403
408702
409008
409319
409656
409989
410294
410596
410908
411237
411573
411903
412243
412458
412603
413086
413394
413715
414012
414306
414594
414866
415132
415399
415679
415970
416263
416533
416784
417047
417214
417583
417866
418156
418448
418742
418910
419265
419552
419841
420135
420430
420713
420985
421247
421500
421754
422034
422316
422587
422854
423114
423358
423599
423843
424080
424334
424611
424876
425122
425360
425592
425826
426002
426323
426578
426845
427128
427394
427639
427810
428144
428413
428695
428974
429255
429543
429714
430105
430379
430673
430842
431315
431628
431921
432211
432512
432710
433131
433457
433776
434070
434348
434655
434822
435275
435594
435903
436208
436488
436773
437093
437419
437747
437931
438398
438704
439009
439315
439656
439999
440176
440631
440921
441237
441550
441859
442206
442520
442812
443109
443404
443730
443935
444374
444567
444977
445248
445526
445807
446108
446279
446710
446979
447243
447507
447771
448047
448332
448628
448918
449177
449425
449693
449872
450255
450543
450842
451139
451320
451686
451962
452142
452572
452864
453042
453428
453692
453945
454206
454473
454663
455054
455326
455584
455827
456076
456256
456399
456853
457147
457312
457716
457965
458109
458483
458757
458909
459306
459593
459860
460108
460352
460612
460882
461177
461472
461770
462067
462348
462631
462919
463218
463547
463873
464179
464473
464774
465083
465394
465718
466054
466376
466666
466956
467270
467427
467894
468195
468482
468757
469020
469169
469577
469874
470165
470448
470727
470989
471262
471538
471816
472111
472311
472707
472966
473111
473462
473719
473992
474259
474525
474813
475076
475325
475587
475865
476166
476490
476810
477117
477426
477716
478024
478349
478577
479046
479358
479668
479986
480304
480629
480971
481323
481635
481939
482265
482607
482943
483294
483625
483945
484250
484568
484933
485295
485626
485943
486248
486557
486873
487205
487545
487867
488151
488420
488707
489003
489165
489597
489909
490187
490448
490720
490999
491310
491627
491937
492262
492565
492854
493171
493507
493858
494194
494510
494832
495143
495459
495798
496136
496475
496781
497071
497224
497671
497961
498252
498544
498823
499079
499337
499608
499896
500194
500473
500760
500924
501283
501542
501693
502070
502367
502647
502905
503156
503397
503642
503910
504176
504460
504773
504977
505218
505629
505896
506176
506479
506773
507070
507381
507664
507950
508256
508568
508897
509232
509544
509845
510147
510435
510730
511031
511344
511654
511931
512201
512495
512648
513065
513354
513532
513893
514140
514380
514619
514875
515145
515425
515704
515987
516253
516519
516683
517060
517346
517637
517925
518190
518355
518734
519019
519297
519570
519873
520071
520465
520723
520908
521330
521649
521960
522285
522600
522790
523181
523474
523794
524118
524292
524720
524994
525270
525542
525834
526134
526446
526734
527003
527276
527575
527861
528160
528471
528782
529092
529369
529660
529984
530303
530606
530768
531222
531500
531778
532054
532359
532523
532978
533265
533545
533819
534097
534251
534672
534978
535278
535551
535815
536083
536372
536662
536949
537249
537549
537813
538070
538336
538618
538921
539225
539524
539830
540118
540265
540694
541000
541306
541622
541916
542058
542448
542712
542972
543242
543517
543794
544076
544328
544570
544822
545102
545389
545682
545992
546298
546584
546733
547167
547481
547805
547971
548436
548716
548997
549157
549587
549883
550097
550510
550776
551048
551332
551638
551953
552113
552606
552899
553181
553473
553776
554113
554446
554763
555083
555386
555690
556016
556355
556704
557000
557277
557558
557836
558111
558410
558570
559009
559289
559543
559787
560073
560355
560633
560930
561217
561492
561750
562004
562269
562552
562733
563106
563374
563631
563877
564114
564287
564604
564869
565146
565410
565655
565821
566132
566376
566638
566905
567186
567377
567783
568046
568219
568567
568845
569030
569432
569705
569994
570252
570494
570740
570995
571260
571450
571812
572075
572222
572610
572873
573142
573424
573711
573926
574321
574584
574865
575156
575458
575767
576091
576414
576724
577019
577327
577668
578006
578336
578570
578998
579305
579514
579965
580305
580633
580938
581217
581499
581794
582005
582409
582727
583029
583170
583580
583866
584169
584468
584770
585089
585386
585670
585885
586287
586608
586936
587246
587543
587829
588123
588278
588745
589069
589384
589665
589946
590241
590549
590860
591174
591347
591808
592077
592373
592683
592989
593289
593596
593881
594168
594448
594727
595055
595381
595694
595995
596283
596574
596864
597165
597482
597798
598093
598367
598641
598931
599227
599529
599848
600170
600454
600723
601003
601299
601611
601910
602201
602491
602758
603025
603315
603487
603669
604177
604474
604745
605016
605279
605538
605809
606087
606373
606657
606911
607152
607413
607672
607935
608197
608458
608717
608972
609213
609383
609698
609973
610252
610522
610796
611071
611324
611582
611840
612103
612385
612678
612961
613217
613467
613710
613959
614218
614399
614735
615008
615269
615512
615740
615982
616141
616497
616772
617050
617322
617476
617846
618087
618332
618595
618870
619052
619470
619744
620027
620307
620595
620767
621209
621523
621819
622091
622349
622522
622922
623211
623518
623817
624100
624367
624526
624919
625215
625525
625808
625997
626379
626651
626933
627073
627516
627810
628103
628378
628639
628901
629178
629451
629730
630029
630324
630590
630854
631116
631398
631699
632000
632300
632613
632887
633150
633418
633698
633995
634276
634557
634840
635106
635371
635641
635925
636218
636526
636814
637083
637351
637605
637869
638046
638418
638700
638998
639262
639506
639666
640039
640313
640585
640866
641146
641425
641569
641946
642212
642514
642811
643102
643278
643670
643940
644211
644482
644773
645075
645258
645638
645897
646151
646418
646696
646878
647257
647555
647733
648074
648320
648490
648832
649110
649377
649626
649888
