124
314
504
706
903
1099
1295
1482
1669
1856
2043
2222
2407
2595
2788
2992
3199
3400
3606
3790
3973
4155
4340
4521
4712
4911
5112
5309
5503
5688
5875
6069
6259
6423
6632
6819
7013
7217
7413
7617
7818
8019
8206
8392
8571
8755
8949
9109
9202
9550
9746
9945
10137
10325
10490
10615
10876
11064
11255
11451
11645
11843
12051
12250
12438
12619
12799
12977
13160
13340
13535
13733
13938
14136
14330
14515
14699
14892
15010
15261
15456
15649
15848
16044
16245
16438
16636
16802
17005
17182
17363
17543
17731
17928
18130
18333
18462
18716
18901
19085
19263
19456
19544
19818
20011
20210
20402
20596
20796
20998
21180
21360
21537
21720
21903
22099
22283
22487
22687
22895
23089
23280
23459
23637
23821
24013
24204
24406
24602
24801
25009
25204
25394
25574
25760
25948
26068
26308
26501
26706
26923
27126
27329
27517
27662
27758
28057
28243
28429
28629
28824
29022
29212
29399
29589
29778
29957
30138
30313
30491
30678
30822
31066
31268
31469
31671
31857
32041
32216
32396
32585
32784
32979
33180
33375
33574
33774
33961
34147
34329
34517
34709
34842
35084
35281
35486
35705
35908
36053
36283
36464
36647
36829
37018
37209
37413
37610
37813
38007
38199
38353
38569
38746
38931
39110
39295
39477
39677
39870
40076
40276
40466
40646
40827
41008
41192
41383
41579
41778
41980
42175
42370
42562
42743
42930
43116
43308
43491
43686
43879
44077
44282
44492
44685
44876
45054
45236
45420
45602
45792
45986
46161
46393
46594
46785
46968
47151
47336
47519
47707
47892
48081
48270
48473
48666
48862
49050
49238
49418
49598
49773
49952
50145
50348
50549
50753
50949
51132
51332
51513
51691
51877
52068
52263
52457
52659
52856
53058
53260
53454
53638
53819
53993
54176
54366
54559
54755
54952
55160
55361
55553
55731
55907
56089
56280
56466
56657
56850
57048
57239
57401
57625
57813
57990
58169
58343
58502
58712
58904
59036
59305
59501
59699
59877
60063
60192
60421
60594
60778
60969
61169
61367
61566
61755
61945
62135
62308
62504
62685
62866
63058
63257
63448
63647
63851
64058
64239
64426
64563
64671
64974
65283
65568
65764
65962
66156
66348
66523
66701
66878
67061
67243
67436
67623
67819
68030
68246
68443
68621
68796
68969
69146
69329
69521
69712
69915
70111
70315
70511
70683
70867
71050
71230
71438
71543
71675
71989
72197
72390
72587
72786
72926
73142
73318
73496
73680
73872
74068
74261
74463
74651
74844
75032
75213
75396
75572
75765
75944
76141
76329
76523
76720
76920
77108
77297
77473
77649
77824
78008
78193
78390
78589
78790
78989
79181
79360
79541
79728
79915
80106
80296
80483
80674
80872
81062
81262
81451
81639
81817
82001
82181
82349
82555
82761
82962
83167
83360
83549
83730
83909
84085
84246
84457
84650
84846
85049
85246
85438
85636
85825
86004
86186
86362
86541
86721
86901
87091
87288
87489
87689
87884
88065
88239
88414
88596
88784
88973
89172
89364
89563
89762
89949
90129
90309
90492
90667
90850
91035
91227
91427
91641
91840
92034
92220
92404
92587
92769
92944
93128
93320
93527
93700
93926
94118
94310
94501
94694
94873
95060
95237
95428
95618
95822
96023
96228
96431
96625
96811
96996
97176
97363
97557
97758
97957
98164
98360
98548
98740
98924
99113
99301
99498
99678
99879
100072
100271
100476
100688
100881
101072
101254
101434
101622
101808
102003
102201
102408
102604
102746
102985
103179
103367
103561
103747
103940
104132
104330
104527
104734
104927
105128
105317
105503
105676
105848
106024
106209
106411
106625
106835
107048
107240
107427
107612
107791
107974
108163
108366
108563
108768
108962
109162
109366
109566
109745
109938
110061
110179
110464
110662
110851
111053
111255
111456
111643
111825
112001
112180
112357
112549
112740
112940
113138
113338
113544
113733
113918
114095
114280
114459
114654
114837
115029
115231
115441
115644
115850
116036
116218
116395
116573
116755
116943
117143
117344
117502
117742
117929
118118
118305
118484
118667
118849
119027
119173
119401
119589
119792
119991
120193
120377
120558
120734
120913
121103
121296
121485
121689
121881
122083
122281
122469
122651
122835
123024
123210
123400
123590
123781
123985
124203
124409
124608
124789
124970
125149
125337
125518
125711
125911
126115
126316
126519
126708
126893
127080
127262
127442
127634
127818
128015
128220
128415
128616
128814
129010
129194
129380
129562
129746
129936
130145
130350
130562
130764
130967
131155
131346
131469
131706
131899
132092
132287
132484
132677
132880
133083
133277
133460
133641
133813
133992
134183
134370
134561
134757
134967
135170
135372
135558
135737
135919
136113
136304
136499
136692
136890
137084
137245
137476
137668
137840
138037
138212
138399
138580
138774
138980
139191
139390
139592
139776
139961
140145
140329
140514
140702
140900
141099
141304
141507
141704
141897
142089
142271
142457
142639
142827
143016
143221
143417
143628
143837
144037
144220
144402
144582
144768
144963
145163
145362
145571
145771
145920
146175
146356
146542
146722
146920
147048
147298
147486
147684
147889
148110
148308
148499
148669
148846
149026
149215
149408
149618
149831
150048
150254
150451
150632
150817
151009
151201
151399
151587
151783
151983
152191
152395
152601
152793
152977
153155
153336
153522
153723
153859
153988
154182
154351
154552
154754
154937
155122
155286
155488
155683
155841
156076
156276
156476
156683
156890
157084
157268
157450
157632
157815
158006
158193
158401
158551
158822
159017
159207
159390
159576
159762
159953
160141
160339
160535
160734
160940
161131
161325
161510
161697
161876
162062
162218
162433
162632
162849
163052
163258
163442
163624
163806
163989
164175
164364
164561
164758
164963
165165
165362
165561
165753
165933
166118
166298
166486
166666
166867
167056
167265
167474
167677
167859
168043
168223
168406
168598
168793
168990
169198
169398
169598
169796
169982
170168
170351
170536
170724
170918
171107
171297
171497
171710
171917
172118
172296
172473
172651
172838
173020
173225
173345
173617
173813
174015
174203
174388
174571
174753
174927
175118
175296
175486
175674
175869
176061
176260
176454
176637
176816
176998
177175
177357
177553
177759
177964
178100
178355
178546
178715
178914
179094
179276
179470
179621
180053
180213
180458
180664
180854
181039
181219
181399
181578
181768
181956
182160
182363
182573
182770
182940
183139
183318
183502
183696
183882
184077
184266
184466
184667
184868
185058
185242
185426
185605
185793
185980
186167
186363
186575
186787
186997
187194
187379
187558
187741
187919
188117
188315
188528
188727
188934
189130
189329
189650
189896
190083
190267
190457
190663
190861
191066
191269
191475
191661
191850
192001
192112
192399
192603
192802
193014
193211
193415
193615
193798
193981
194160
194345
194529
194715
194898
195086
195289
195502
195702
195894
196068
196247
196423
196610
196789
196981
197181
197389
197591
197796
197989
198176
198362
198545
198731
198921
199111
199302
199506
199700
199886
200112
200304
200480
200660
200836
201023
201213
201417
201617
201831
202023
202217
202406
202541
202768
202947
203138
203317
203509
203702
203897
204100
204308
204469
204679
204857
205038
205215
205403
205588
205792
205998
206160
206256
206594
206782
206963
207146
207332
207524
207721
207909
208104
208307
208504
208706
208893
209081
209262
209444
209632
209817
210015
210225
210428
210638
210835
211026
211204
211386
211563
211750
211941
212139
212329
212481
212716
212915
213069
213304
213482
213663
213838
214025
214216
214406
214604
214801
215009
215207
215394
215573
215747
215929
216121
216310
216507
216701
216897
217092
217297
217483
217671
217852
218041
218223
218411
218598
218794
218969
219220
219417
219614
219797
219982
220163
220347
220533
220726
220930
221137
221343
221548
221746
221884
222121
222303
222493
222682
222876
223032
223276
223467
223674
223872
224066
224248
224429
224605
224786
224979
225183
225383
225591
225784
225976
226165
226346
226531
226715
226911
227099
227296
227494
227697
227904
228114
228305
228495
228676
228862
229052
229247
229441
229647
229861
230073
230282
230476
230660
230844
231034
231230
231429
231627
231828
232027
232231
232426
232569
232810
232991
233166
233346
233529
233727
233941
234153
234289
234563
234756
234942
235131
235313
235451
235691
235891
236090
236296
236444
236692
236894
237084
237271
237452
237638
237822
238018
238210
238418
238627
238840
239037
239224
239401
239585
239777
239975
240173
240374
240573
240769
240976
241168
241365
241554
241743
241925
242114
242288
242510
242725
242950
243159
243354
243538
243717
243905
244086
244280
244472
244677
244880
245086
245281
245482
245620
245853
246028
246210
246391
246576
246772
246961
247164
247368
247575
247760
247942
248119
248301
248490
248691
248885
249093
249291
249496
249697
249893
250080
250264
250450
250640
250832
251027
251222
251422
251632
251836
252036
252222
252405
252583
252767
252944
253141
253342
253554
253753
253953
254138
254327
254518
254707
254895
255082
255265
255458
255661
255858
256067
256262
256452
256630
256813
256995
257180
257376
257579
257777
257984
258182
258381
258567
258751
258927
259107
259291
259482
259670
259868
260058
260255
260442
260570
260842
261027
261202
261384
261573
261767
261968
262173
262384
262586
262787
262974
263159
263345
263536
263727
263932
264071
264330
264529
264729
264919
265112
265299
265484
265670
265856
266039
266232
266441
266649
266852
267045
267224
267403
267590
267720
267953
268139
268341
268538
268744
268942
269140
269334
269524
269704
269890
270077
270266
270461
270662
270865
271074
271287
271483
271668
271850
272031
272224
272426
272628
272836
273035
273239
273440
273641
273830
274014
274203
274394
274590
274787
274985
275190
275410
275619
275821
276004
276188
276369
276556
276747
276949
277163
277367
277570
277765
277957
278152
278345
278525
278715
278898
279098
279301
279507
279662
279908
280106
280287
280468
280642
280814
281000
281199
281402
281611
281808
282005
282192
282382
282562
282749
282937
283128
283319
283520
283723
283933
284147
284352
284543
284728
284911
285094
285289
285474
285679
285890
286104
286309
286507
286693
286881
287071
287262
287456
287649
287844
288042
288252
288452
288658
288851
289034
289212
289394
289581
289774
289980
290189
290390
290593
290791
290979
291164
291338
291519
291702
291900
292091
292290
292480
292674
292853
293080
293264
293447
293620
293804
293992
294188
294386
294587
294795
294997
295194
295382
295565
295750
295942
296134
296336
296536
296739
296932
297134
297323
297514
297702
297889
298071
298255
298438
298636
298846
299061
299265
299461
299644
299826
300014
300193
300378
300564
300765
300925
301163
301360
301548
301734
301920
302102
302287
302473
302656
302842
303043
303237
303444
303647
303848
304031
304217
304396
304582
304779
304986
305188
305400
305597
305801
305997
306182
306370
306555
306751
306941
307141
307334
307535
307745
307962
308161
308354
308536
308715
308899
309089
309287
309491
309704
309906
310107
310301
310490
310679
310872
311006
311246
311433
311632
311835
312039
312234
312430
312617
312797
312974
313149
313326
313507
313705
313910
314112
314322
314511
314696
314878
315057
315243
315431
315631
315795
316026
316224
316426
316635
316839
317022
317205
317383
317568
317760
317955
318161
318363
318577
318776
318976
319168
319306
319535
319729
319919
320126
320325
320531
320738
320932
321130
321318
321510
321692
321885
322068
322260
322467
322692
322904
323112
323297
323479
323659
323835
324136
324419
324614
324819
325018
325218
325420
325614
325795
325977
326157
326348
326545
326747
326952
327155
327372
327572
327766
327949
328130
328318
328521
328671
328931
329131
329331
329534
329730
329923
330113
330304
330487
330676
330866
331067
331277
331494
331694
331895
332078
332266
332449
332630
332816
333004
333205
333403
333603
333799
333985
334168
334349
334529
334712
334901
335087
335276
335478
335672
335882
336089
336289
336473
336655
336836
337023
337224
337434
337638
337846
338047
338249
338447
338633
338820
339004
339198
339386
339590
339786
339988
340193
340403
340597
340790
340971
341155
341338
341520
341717
341920
342131
342331
342527
342713
342893
343078
343265
343451
343641
343830
344022
344219
344421
344612
344808
344992
345178
345353
345535
345713
345895
346092
346307
346516
346651
346911
347098
347280
347463
347637
347820
348002
348200
348389
348591
348783
348981
349178
349363
349539
349682
349887
350069
350250
350437
350628
350828
351037
351235
351418
351597
351772
351955
352145
352285
352527
352726
352922
353116
353316
353503
353692
353874
354055
354231
354419
354606
354797
354989
355145
355423
355625
355807
355988
356169
356351
356539
356731
356938
357143
357350
357548
357742
357876
358121
358303
358490
358671
358859
359051
359257
359456
359666
359872
360061
360241
360420
360599
360789
360992
361196
361407
361614
361815
362009
362204
362387
362575
362756
362941
363127
363323
363519
363722
363930
364133
364439
364685
364864
365034
365230
365425
365622
365843
366049
366252
366436
366624
366763
366996
367177
367370
367555
367751
367951
368152
368360
368556
368751
368932
369115
369296
369483
369678
369885
370086
370298
370497
370695
370881
371067
371254
371441
371636
371820
372019
372217
372398
372625
372770
373021
373209
373386
373562
373739
373930
374119
374322
374528
374729
374926
375118
375303
375490
375682
375872
376064
376260
376455
376654
376858
377048
377247
377438
377628
377809
377991
378172
378368
378569
378779
378980
379193
379340
379576
379768
379949
380132
380322
380527
380730
380940
381141
381340
381542
381741
381926
382114
382292
382481
382675
382876
383078
383282
383497
383699
383897
384035
384264
384451
384652
384852
385066
385274
385477
385677
385876
386068
386257
386445
386635
386825
387023
387224
387374
387649
387863
388061
388247
388429
388611
388802
388988
389187
389383
389590
389786
389990
390179
390366
390552
390735
390924
391119
391304
391498
391705
391907
392121
392324
392521
392702
392890
393075
393266
393466
393680
393893
394107
394308
394506
394699
394882
395072
395259
395456
395647
395851
396050
396257
396469
396675
396863
397048
397226
397409
397605
397797
398004
398209
398424
398626
398830
399019
399206
399392
399587
399757
399986
400187
400394
400604
400804
401009
401200
401391
401575
401761
401943
402139
402350
402574
402791
403119
403377
403565
403744
403938
404132
404333
404532
404743
404943
405147
405305
405535
405711
405891
406075
406266
406464
406655
406863
407070
407285
407481
407669
407847
408028
408221
408422
408616
408822
409017
409221
409431
409626
409818
410003
410191
410377
410571
410759
410928
411168
411385
411588
411788
411974
412158
412347
412526
412717
412911
413119
413318
413522
413721
413913
414103
414291
414471
414660
414845
415035
415228
415420
415623
415830
416036
416220
416401
416582
416763
416952
417153
417351
417557
417754
417956
418153
418346
418529
418713
418899
419090
419279
419471
419662
419868
420087
420299
420493
420677
420859
421039
421227
421408
421604
421802
422014
422213
422416
422602
422784
422970
423157
423340
423535
423722
423919
424117
424320
424522
424724
424915
425099
425283
425468
425654
425853
426062
426275
426489
426695
426895
427083
427268
427446
427635
427828
428034
428232
428437
428632
428839
428976
429241
429427
429608
429786
429972
430169
430363
430513
430764
430968
431157
431350
431530
431712
431892
432088
432276
432477
432671
432873
433070
433269
433459
433649
433839
434024
434208
434394
434586
434790
435006
435218
435366
435615
435802
435986
436174
436358
436553
436756
436964
437173
437382
437583
437782
437975
438162
438350
438542
438737
438938
439147
439291
439560
439773
439973
440160
440342
440521
440709
440909
441111
441327
441536
441737
441931
442122
442305
442492
442679
442868
443070
443181
443300
443426
443675
443897
444105
444302
444485
444673
444857
445049
445238
445442
445657
445874
446088
446289
446478
446669
446862
447052
447251
447437
447640
447843
448050
448259
448460
448659
448844
449034
449218
449417
449559
449828
450035
450254
450452
450652
450841
451020
451205
451387
451585
451770
451965
452153
452351
452475
452761
452949
453133
453306
453486
453670
453861
454058
454258
454465
454668
454872
455065
455251
455437
455626
455815
456012
456206
456410
456612
456813
457016
457216
457413
457601
457789
457936
458156
458356
458572
458787
458918
459193
459386
459571
459758
459946
460085
460322
460518
460716
460919
461116
461319
461517
461700
461880
462056
462236
462417
462607
462794
463000
463205
463419
463613
463801
463978
464161
464350
464555
464750
464960
465156
465361
465568
465768
465964
466154
466347
466531
466725
466918
467121
467334
467554
467761
467962
468144
468331
468515
468702
468896
469093
469305
469510
469743
470108
470305
470499
470681
470867
471051
471239
471431
471633
471824
472027
472218
472405
472578
472758
472933
473117
473313
473523
473725
473932
474129
474329
474523
474708
474896
475079
475274
475461
475663
475858
476058
476267
476481
476677
476869
477051
477235
477423
477611
477812
478020
478240
478446
478652
478836
479024
479216
479410
479601
479797
479986
480148
480395
480597
480801
480990
481175
481350
481528
481709
481896
482042
482317
482708
482924
483115
483301
483482
483662
483844
484038
484240
484451
484658
484867
485012
485264
485459
485642
485828
486014
486209
486406
486612
486814
487025
487240
487441
487630
487812
487991
488181
488383
488586
488798
488998
489204
489401
489597
489787
489973
490159
490344
490530
490723
490917
491125
491337
491543
491740
491922
492106
492285
492472
492654
492852
493060
493268
493474
493671
493863
494055
494246
494431
494620
494804
494996
495192
495401
495599
495808
496010
496202
496386
496572
496754
496945
497145
497347
497556
497763
497971
498163
498353
498534
498722
498911
499103
499289
499484
499675
499875
500085
500294
500479
500662
500836
501018
501209
501395
501590
501790
502011
502165
502425
502612
502797
502982
503172
503364
503560
503753
503953
504150
504354
504556
504753
504942
505123
505305
505494
505681
505882
506097
506309
506522
506725
506919
507106
507293
507471
507661
507856
508062
508265
508469
508662
508862
509060
509254
509443
509580
509804
509989
510195
510313
510598
510805
511016
511207
511398
511581
511765
511951
512146
512338
512541
512735
512929
513118
513307
513489
513675
513858
514042
514227
514414
514605
514807
515023
515233
515433
515620
515804
515989
516179
516363
516559
516760
516916
517174
517380
517574
517762
517952
518140
518326
518520
518703
518895
519095
519290
519498
519699
519893
520069
520249
520425
520597
520805
521009
521209
521430
521633
521837
522033
522218
522401
522584
522782
522979
523124
523374
523576
523789
524010
524208
524399
524575
524753
524939
525130
525330
525538
525767
525977
526140
526546
526703
526924
527110
527300
527483
527679
527875
528076
528267
528459
528641
528820
528997
529182
529360
529548
529750
529963
530168
530378
530577
530692
530936
531113
531298
531486
531685
531832
532079
532271
532469
532672
532869
533053
533194
533404
533585
533772
533963
534164
534363
534575
534728
534968
535148
535312
535510
535702
535889
536089
536274
536470
536664
536864
537056
537243
537425
537605
537785
537974
538159
538356
538566
538778
538989
539186
539373
539514
539739
539916
540108
540304
540506
540708
540861
540991
541298
541499
541687
541867
542053
542235
542424
542623
542815
543017
543218
543432
543624
543813
543993
544174
544360
544558
544753
544963
545162
545313
545549
545742
545924
546107
546288
546470
546652
546841
547031
547237
547374
547651
547847
548039
548219
548397
548580
548761
548956
549155
549367
549565
549771
549968
550158
550348
550540
550720
550918
551105
551306
551505
551708
551906
552110
552307
552496
552680
552859
553041
553234
553445
553654
553864
554064
554254
554440
554627
554805
554990
555171
555361
555550
555753
555945
556143
556347
556546
556730
556915
557091
557272
557459
557649
557853
558058
558270
558471
558674
558860
559046
559233
559428
559618
559822
560019
560227
560434
560637
560836
561028
561222
561415
561520
561784
561977
562186
562432
562659
562877
563069
563252
563437
563616
563809
564006
564216
564412
564620
564816
565013
565211
565401
565576
565754
565934
566125
566315
566516
566713
566853
567132
567331
567521
567703
567885
568074
568278
568478
568690
568889
569096
569299
569497
569689
569875
570064
570250
570448
570642
570842
571056
571278
571483
571685
571869
572057
572244
572427
572619
572816
572970
573114
573451
573653
573843
574034
574225
574408
574601
574788
574980
575181
575379
575588
575793
575994
576175
576356
576529
576709
576900
577098
577294
577501
577693
577897
578093
578279
578461
578642
578835
579027
579229
579380
579506
579832
580053
580256
580452
580632
580814
581001
581189
581387
581592
581813
582026
582232
582426
582614
582806
582997
583188
583386
583576
583780
583986
584191
584399
584596
584797
584914
585164
585349
585534
585730
585944
586152
586371
586496
586761
586943
587125
587302
587490
587681
587880
588007
588260
588449
588646
588851
589044
589226
589366
589578
589759
589951
590145
590342
590544
590756
590959
591157
591345
591528
591713
591913
592107
592314
592512
592717
592915
593117
593311
593505
593699
593882
594068
594255
594450
594657
594877
595087
595305
595404
595784
596026
596200
596387
596582
596789
596990
597195
597381
597572
597763
597954
598139
598329
598510
598700
598904
599104
599316
599524
599732
599916
600103
600286
600481
600623
600887
601095
601313
601516
601723
601926
602109
602296
602481
602682
602875
603080
603279
603435
603697
603916
604117
604308
604486
604663
604858
605046
605256
605411
605671
605864
606066
606251
606434
606617
606797
606983
607175
607363
607562
607765
607962
608165
608363
608559
608741
608925
609102
609290
609493
609709
609916
610131
610325
610522
610712
610895
611084
611272
611473
611662
611866
612067
612272
612488
612697
612883
613068
613248
613433
613630
613818
614023
614223
614446
614650
614852
615039
615225
615409
615565
615792
615992
616189
616390
616596
616790
616988
617176
617363
617541
617724
617856
618080
618279
618509
618751
618952
619136
619320
619504
619682
619864
620049
620245
620440
620645
620847
621044
621241
621434
621619
621807
621990
622134
622362
622560
622758
622972
623188
623397
623588
623770
623951
624138
624341
624544
624754
624957
625161
625364
625572
625762
625951
626133
626319
626507
626701
626893
627093
627299
627509
627706
627895
628075
628253
628432
628608
628796
628991
629157
629399
629598
629788
629976
630166
630359
630542
630732
630910
631101
631295
631502
631699
631905
632104
632296
632481
632670
632855
633049
633251
633457
633669
633884
634029
634285
634478
634655
634843
635035
635237
635434
635635
635828
636029
636244
636454
636640
636818
636991
637168
637360
637547
637684
637939
638144
638342
638544
638728
638911
639094
639279
639464
639657
639851
640057
640260
640473
640615
640863
641050
641237
641420
641610
641793
641993
642210
642506
642724
642925
643111
643294
643481
643664
643865
644069
644236
644374
644739
644943
645142
645338
645522
645705
645895
646083
646280
646490
646688
646897
647107
647251
647494
647676
647853
648045
648251
648459
648679
648900
649108
649304
649500
649685
649875
