209
503
815
1135
1443
1737
2036
2328
2631
2931
3239
3549
3860
4159
4441
4724
5026
5340
5668
5971
6265
6554
6855
7152
7464
7777
8082
8383
8675
8959
9260
9559
9886
10197
10495
10781
11072
11361
11671
12000
12305
12605
12900
13186
13486
13700
14016
14330
14638
14941
15225
15507
15804
16126
16443
16737
17038
17328
17614
17925
18229
18537
18849
19152
19442
19725
20018
20325
20644
20957
21256
21547
21828
22134
22446
22768
23073
23379
23673
23962
24264
24561
24866
25179
25488
25785
26068
26360
26659
26973
27288
27590
27882
28176
28472
28765
28972
29299
29534
29857
30156
30442
30738
31025
31238
31579
31822
32126
32360
32669
32894
33218
33537
33843
34143
34444
34732
35025
35316
35618
35928
36240
36539
36824
37109
37401
37724
38041
38340
38642
38932
39222
39523
39831
40146
40455
40697
41001
41305
41592
41898
42214
42523
42833
43127
43405
43708
44029
44361
44671
44976
45266
45555
45868
46180
46492
46806
47117
47414
47694
47978
48280
48595
48914
49221
49514
49801
50102
50407
50720
51028
51331
51636
51929
52215
52519
52825
53146
53454
53748
54034
54322
54619
54939
55257
55559
55861
56159
56445
56742
57045
57358
57659
57865
58174
58442
58743
59051
59373
59687
59987
60284
60571
60863
61174
61481
61788
62100
62403
62691
62981
63273
63580
63906
64213
64515
64791
65072
65361
65560
65905
66213
66521
66813
67098
67357
67612
67807
68132
68446
68750
69044
69325
69616
69911
70225
70539
70845
71135
71425
71721
72023
72329
72638
72941
73240
73538
73809
74107
74393
74614
74940
75238
75528
75722
76027
76326
76658
76963
77263
77564
77859
78145
78444
78749
79063
79374
79674
79962
80255
80547
80860
81185
81489
81788
82084
82370
82670
82986
83307
83607
83915
84210
84508
84803
85097
85302
85634
85886
86193
86495
86783
87091
87414
87730
88035
88335
88625
88918
89218
89529
89841
90153
90451
90743
91028
91331
91638
91959
92268
92571
92848
93136
93328
93650
93886
94216
94500
94786
95069
95357
95626
95812
96139
96459
96768
97060
97342
97632
97936
98266
98578
98878
99178
99475
99769
100064
100378
100691
101006
101312
101600
101884
102180
102506
102830
103131
103428
103719
104009
104312
104626
104942
105249
105555
105762
106068
106304
106629
106858
107188
107504
107715
108034
108314
108618
108931
109249
109543
109844
110134
110421
110713
111013
111318
111633
111937
112225
112508
112679
113000
113254
113588
113885
114181
114466
114771
115071
115379
115695
116004
116299
116596
116886
117185
117485
117799
118114
118422
118709
118994
119284
119591
119923
120234
120534
120831
121126
121420
121723
122033
122344
122651
122953
123239
123531
123827
124150
124480
124784
125077
125369
125637
125852
126195
126495
126815
127120
127415
127702
127995
128298
128616
128927
129230
129522
129807
130096
130414
130742
131055
131360
131656
131942
132243
132555
132871
133180
133495
133788
134077
134365
134671
134927
135266
135521
135695
135998
136283
136591
136904
137233
137543
137848
138142
138431
138726
139034
139355
139541
139875
140181
140465
140752
141051
141367
141732
142038
142328
142622
142928
143230
143547
143871
144172
144477
144770
145059
145355
145666
146004
146313
146607
146894
147181
147478
147683
148014
148267
148586
148844
149156
149395
149557
149886
150194
150512
150825
151117
151403
151691
151995
152327
152645
152942
153239
153524
153815
154124
154441
154745
155042
155202
155670
155960
156254
156566
156806
157114
157428
157683
157955
158236
158550
158883
159188
159492
159710
160023
160322
160624
160938
161253
161563
161862
162086
162391
162694
163014
163336
163576
163888
164184
164485
164793
165034
165183
165510
165793
166084
166364
166663
166884
167207
167522
167840
168145
168368
168677
168973
169279
169541
169870
170182
170472
170763
171043
171355
171653
171954
172267
172578
172866
173159
173449
173762
174101
174408
174700
174984
175280
175582
175909
176232
176533
176840
177135
177432
177725
177926
178267
178544
178867
179159
179447
179737
180048
180390
180713
181019
181315
181603
181905
182217
182552
182863
183174
183467
183757
184004
184319
184642
184969
185270
185580
185865
186160
186473
186806
187119
187427
187723
188011
188308
188607
188911
189239
189544
189846
190130
190418
190714
191026
191359
191664
191960
192255
192551
192848
193145
193464
193773
194077
194380
194665
194952
195258
195588
195901
196202
196483
196775
196970
197294
197564
197881
198178
198460
198770
199066
199359
199662
199979
200289
200597
200881
201172
201467
201780
202115
202412
202637
202957
203242
203542
203853
204185
204490
204802
205097
205384
205678
205977
206289
206610
206918
207214
207498
207786
208102
208421
208727
209033
209332
209620
209917
210212
210521
210837
211148
211448
211746
212030
212326
212631
212953
213261
213564
213848
214145
214441
214605
214942
215239
215550
215787
216092
216387
216685
216997
217331
217635
217934
218217
218513
218814
219128
219454
219757
220051
220352
220648
220950
221260
221591
221894
222200
222488
222778
223073
223392
223752
224060
224355
224647
224927
225233
225556
225882
226181
226491
226785
227072
227368
227672
227978
228296
228606
228896
229178
229482
229797
230129
230432
230732
231026
231313
231615
231920
232221
232535
232844
233138
233422
233708
234005
234325
234648
234950
235246
235532
235830
236136
236444
236757
237059
237356
237652
237945
238243
238547
238878
239181
239482
239766
240056
240350
240663
240988
241294
241594
241888
242185
242487
242792
243112
243419
243724
244020
244303
244593
244899
245227
245538
245835
246125
246413
246710
247018
247333
247646
247943
248244
248531
248826
249123
249436
249743
250055
250353
250643
250858
251165
251494
251816
252094
252285
252752
253042
253326
253526
253851
254095
254419
254659
254967
255259
255478
255785
256111
256421
256719
257008
257296
257608
257917
258230
258543
258847
259140
259386
259708
260011
260325
260648
260886
261205
261489
261765
262079
262408
262754
263060
263297
263609
263921
264227
264539
264857
265093
265415
265710
266000
266290
266603
266868
267188
267475
267777
268065
268227
268534
268859
269179
269475
269712
270028
270268
270579
270821
271157
271404
271732
272022
272309
272603
272912
273240
273556
273854
274150
274382
274687
274989
275321
275623
275939
276241
276526
276817
277110
277410
277671
278003
278300
278593
278878
279185
279499
279727
280060
280371
280665
280951
281248
281553
281867
282189
282497
282731
283046
283341
283630
283952
284198
284510
284778
285063
285328
285629
285881
286147
286436
286694
286957
287140
287417
287694
287951
288212
288485
288783
289038
289283
289585
289874
290178
290482
290747
291023
291267
291559
291859
292130
292372
292638
292887
293186
293462
293736
294034
294306
294604
294806
295145
295457
295750
296036
296328
296637
296949
297259
297567
297867
298115
298293
298613
298888
299138
299411
299663
299968
300233
300482
300666
300998
301235
301574
301804
302127
302402
302713
302977
303300
303573
303841
304036
304343
304472
304853
305152
305469
305798
306102
306398
306663
306837
307160
307423
307729
307998
308317
308610
308913
309195
309505
309813
310149
310454
310748
310951
311255
311500
311835
312127
312449
312693
313012
313309
313609
313907
314221
314541
314850
315153
315443
315731
316034
316369
316658
316932
317245
317533
317818
318111
318383
318672
318973
319289
319567
319744
320028
320320
320527
320852
321166
321488
321775
322054
322364
322610
322956
323279
323556
323867
324160
324466
324680
325022
325319
325550
325837
326139
326410
326676
326913
327216
327500
327760
328062
328309
328522
328841
329099
329412
329720
330018
330285
330463
330782
331080
331373
331690
331996
332201
332481
332768
333034
333288
333591
333923
334213
334492
334744
334926
335232
335512
335757
336018
336288
336561
336793
337037
337274
337581
337851
338070
338351
338614
338852
339143
339317
339606
339801
340153
340447
340697
340962
341216
341526
341826
342127
342409
342691
342958
343246
343499
343798
344066
344411
344730
345001
345194
345500
345787
346102
346421
346736
346941
347109
347431
347693
347931
348192
348463
348742
349022
349321
349569
349803
350103
350410
350718
351016
351274
351590
351865
352134
352388
352581
352893
353149
353411
353670
353931
354180
354416
354678
354925
355207
355559
355856
356150
356392
356625
356866
357126
357384
357676
357939
358163
358392
358689
358935
359114
359413
359625
359986
360295
360559
360817
361039
361288
361559
361908
362101
362392
362631
362922
363165
363401
363636
363942
364235
364436
364760
365030
365261
365499
365740
365957
366264
366553
366822
367124
367411
367660
367849
368023
368346
368593
368913
369218
369503
369758
370002
370148
370474
370718
370982
371222
371407
371660
371951
372209
372522
372724
373049
373299
373477
373767
374031
374303
374618
374806
375128
375445
375679
375976
376252
376512
376787
377130
377442
377742
378003
378240
378485
378735
378993
379297
379617
379915
380196
380511
380786
381038
381313
381565
381880
382134
382393
382635
382905
383179
383488
383690
384008
384311
384593
384806
385121
385400
385694
386016
386282
386524
386836
387137
387430
387739
388078
388381
388673
388961
389245
389556
389875
390097
390418
390654
390954
391193
391449
391741
392083
392396
392689
392946
393212
393388
393686
393897
394265
394564
394839
395031
395334
395641
395949
396264
396592
396896
397200
397491
397777
398075
398386
398653
398978
399275
399576
399860
400171
400498
400850
401161
401467
401757
402055
402362
402682
403011
403321
403625
403915
404200
404501
404805
405133
405449
405750
406037
406332
406632
406942
407263
407572
407870
408166
408453
408749
409046
409367
409691
409996
410284
410569
410854
411156
411488
411805
412102
412402
412695
412990
413286
413599
413914
414227
414526
414811
415096
415389
415719
416051
416349
416647
416939
417229
417530
417843
418154
418461
418751
419050
419341
419646
419950
420268
420581
420885
421179
421463
421763
422089
422430
422736
423037
423322
423616
423927
424229
424555
424865
425173
425470
425755
426045
426351
426671
426983
427284
427578
427862
428171
428474
428795
429104
429412
429706
430000
430297
430600
430908
431216
431504
431812
432072
432332
432597
432920
433263
433566
433863
434150
434453
434734
435061
435380
435687
435994
436289
436578
436882
437174
437523
437841
438136
438425
438722
439025
439340
439667
439973
440280
440593
440880
441177
441498
441831
442148
442452
442739
443031
443330
443651
443986
444297
444598
444893
445171
445477
445809
446127
446435
446747
447036
447326
447627
447923
448206
448409
448731
449023
449313
449603
449908
450232
450532
450843
451119
451410
451729
452023
452326
452642
452960
453259
453550
453838
454135
454448
454771
455085
455388
455674
455968
456276
456580
456895
457214
457514
457805
458050
458333
458526
458854
459174
459497
459794
460081
460373
460676
460986
461317
461620
461922
462223
462515
462814
463122
463442
463743
464049
464342
464632
464922
465226
465562
465876
466171
466462
466750
467048
467369
467688
467995
468300
468601
468888
469179
469477
469792
470103
470413
470706
470997
471283
471590
471913
472225
472528
472834
473117
473413
473719
474035
474351
474660
474964
475250
475542
475845
476157
476484
476790
477095
477379
477676
477991
478329
478659
478966
479264
479557
479858
480165
480476
480811
481123
481424
481710
482002
482312
482633
482969
483274
483569
483864
484125
484406
484593
484773
485101
485348
485578
485822
486049
486289
486500
486729
486980
487239
487481
487713
487943
488177
488426
488682
488898
489224
489487
489742
490010
490264
490498
490726
491040
491335
491660
491970
492266
492546
492843
493149
493465
493792
494095
494392
494675
494966
495282
495599
495913
496221
496527
496816
497105
497407
497707
498037
498351
498650
498936
499234
499546
499862
500186
500484
500801
501085
501390
501688
501989
502312
502632
502931
503212
503494
503773
503974
504315
504556
504869
505090
505390
505691
505985
506288
506610
506924
507227
507520
507808
508104
508401
508723
509033
509340
509629
509915
510205
510508
510830
511150
511439
511737
512041
512334
512623
512938
513248
513554
513858
514145
514427
514731
515054
515380
515681
515975
516266
516562
516864
517177
517499
517803
518110
518400
518687
518987
519298
519625
519942
520190
520501
520748
521078
521404
521767
522073
522376
522584
522894
523202
523511
523822
524142
524380
524697
524978
525272
525570
525826
526181
526483
526777
527069
527367
527586
527919
528235
528547
528850
529055
529368
529669
529960
530287
530611
530846
531165
531451
531738
532045
532288
532630
532938
533235
533529
533825
534047
534365
534699
535011
535317
535609
535892
536189
536509
536834
537146
537391
537708
537994
538298
538607
538929
539176
539507
539807
540098
540388
540695
540939
541289
541603
541902
542182
542401
542736
543049
543373
543679
543980
544221
544537
544834
545138
545447
545763
546005
546322
546603
546897
547190
547507
547762
548088
548383
548675
548977
549271
549504
549837
550144
550448
550741
551027
551261
551576
551892
552216
552522
552812
553029
553336
553636
553961
554278
554499
554823
555118
555409
555710
556012
556334
556642
556945
557239
557526
557815
558129
558461
558773
559074
559366
559645
559951
560265
560587
560898
561203
561501
561788
562082
562386
562703
563019
563328
563625
563905
564196
564518
564847
565158
565462
565757
566043
566351
566652
566967
567285
567595
567896
568174
568464
568767
569089
569414
569717
570013
570296
570600
570900
571215
571533
571836
572143
572433
572725
573024
573332
573673
573981
574277
574558
574853
575158
575478
575817
576119
576422
576719
577008
577310
577618
577944
578255
578562
578848
579137
579432
579747
580096
580406
580702
580999
581283
581588
581899
582223
582526
582836
583126
583412
583709
584012
584328
584643
584951
585245
585517
585721
586046
586362
586678
586975
587276
587574
587873
588170
588474
588791
589108
589403
589690
589976
590273
590580
590897
591204
591506
591794
592087
592390
592700
593013
593326
593623
593920
594209
594504
594808
595126
595448
595757
596047
596331
596626
596936
597272
597591
597878
598169
598475
598776
599074
599389
599711
600017
600318
600603
600895
601198
601521
601745
602075
602297
602616
602896
603195
603512
603834
604135
604445
604743
605030
605325
605630
605943
606262
606570
606860
607145
607439
607757
608086
608393
608699
608995
609284
609586
609889
610198
610515
610826
611122
611411
611697
611996
612320
612647
612949
613245
613538
613837
614149
614460
614778
615084
615386
615682
615973
616273
616590
616930
617235
617533
617822
618108
618416
618751
619076
619384
619683
619974
620280
620578
620891
621219
621529
621832
622121
622407
622700
623031
623361
623658
623958
624248
624544
624843
625150
625472
625777
626087
626384
626663
626953
627264
627577
627886
628193
628483
628767
629073
629379
629703
630013
630317
630612
630902
631198
631496
631807
632135
632445
632738
633023
633320
633616
633939
634266
634567
634857
635151
635449
635752
636064
636380
636685
636984
637276
637571
637867
638177
638518
638824
639119
639406
639699
640002
640329
640657
640961
641265
641559
641854
642157
642459
642779
643088
643391
643681
643970
644260
644582
644903
645209
645512
645807
646086
646392
646708
647025
647326
647635
647931
648218
648512
648811
649118
649432
649743
