312
612
915
1213
1518
1816
2119
2423
2722
3025
3329
3622
3923
4224
4530
4831
5127
5434
5741
6035
6340
6639
6942
7243
7535
7840
8142
8439
8739
9037
9341
9637
9933
10237
10536
10833
11138
11436
11742
12039
12334
12643
12947
13243
13549
13847
14154
14452
14754
15065
15365
15658
15961
16258
16551
16845
17139
17441
17741
17935
18286
18596
18906
19214
19521
19838
20145
20440
20738
21045
21347
21641
21943
22246
22542
22842
23145
23453
23757
24058
24371
24676
24976
25282
25586
25893
26198
26503
26811
27118
27423
27726
28037
28341
28638
28948
29252
29546
29846
30142
30444
30741
31030
31339
31647
31942
32244
32540
32842
33140
33435
33738
34036
34328
34626
34925
35234
35541
35846
36158
36466
36769
37075
37386
37696
38001
38312
38620
38923
39232
39537
39846
40152
40455
40767
41068
41365
41673
41977
42280
42579
42875
43182
43484
43782
44084
44390
44697
44997
45298
45607
45912
46210
46508
46806
47108
47404
47701
48009
48310
48610
48909
49214
49522
49823
50129
50433
50732
51029
51330
51633
51936
52237
52542
52849
53148
53452
53761
54069
54367
54663
54973
55278
55573
55872
56175
56481
56780
57079
57389
57692
57991
58294
58597
58898
59198
59497
59798
60095
60391
60694
61002
61301
61603
61915
62221
62519
62818
63122
63432
63726
64024
64332
64633
64931
65229
65529
65836
66135
66437
66747
67044
67342
67640
67942
68244
68541
68843
69149
69447
69745
70049
70352
70652
70951
71257
71555
71849
72149
72449
72751
73048
73342
73655
73961
74258
74563
74864
75174
75475
75768
76081
76390
76688
76990
77295
77607
77910
78213
78523
78831
79131
79438
79747
80051
80356
80667
80980
81292
81608
81919
82234
82533
82833
83152
83460
83766
84076
84384
84702
85016
85326
85646
85959
86275
86594
86923
87244
87566
87900
88221
88531
88846
89167
89483
89795
90113
90424
90731
91038
91342
91655
91961
92271
92588
92899
93209
93518
93830
94143
94448
94760
95072
95380
95696
96007
96322
96634
96949
97267
97582
97897
98215
98548
98874
99203
99552
99883
100208
100537
100865
101193
101511
101842
102160
102472
102786
103097
103412
103722
104030
104344
104651
104951
105262
105577
105882
106189
106510
106828
107137
107446
107760
108081
108388
108703
109025
109338
109651
109964
110273
110579
110879
111184
111492
111788
112096
112403
112715
113023
113322
113629
113939
114238
114535
114732
115089
115398
115707
115983
116134
116456
116778
117079
117387
117698
118001
118320
118631
118939
119248
119549
119854
120154
120341
120705
121029
121329
121631
121934
122236
122535
122834
123136
123434
123728
124023
124325
124623
124918
125219
125526
125830
126142
126459
126792
127113
127427
127753
128065
128370
128685
129002
129311
129620
129939
130260
130573
130886
131203
131526
131847
132181
132527
132858
133190
133514
133844
134170
134493
134816
135133
135455
135773
136098
136416
136730
137054
137368
137674
137991
138305
138614
138924
139240
139557
139872
140188
140499
140821
141137
141448
141772
142085
142394
142707
143014
143323
143625
143924
144232
144423
144761
145074
145382
145689
145983
146273
146570
146858
147062
147276
147435
147760
148054
148274
148424
148560
148782
149108
149417
149614
149757
149894
150045
150341
150679
150862
151014
151149
151555
151883
152207
152471
152847
153174
153514
153836
154150
154470
154791
155110
155308
155451
155683
156072
156413
156747
157080
157417
157747
158081
158357
158744
159077
159404
159731
160045
160366
160688
161003
161331
161649
161970
162282
162588
162901
163207
163505
163815
164131
164446
164766
165088
165408
165730
166053
166374
166702
167024
167347
167670
167981
168302
168618
168943
169263
169582
169917
170244
170575
170912
171241
171567
171885
172214
172536
172848
173173
173510
173836
174156
174490
174823
175150
175473
175796
176125
176448
176775
177111
177432
177767
178098
178433
178762
179091
179434
179771
180112
180449
180785
181114
181446
181788
182125
182464
182803
183144
183469
183801
184141
184472
184801
185125
185459
185781
186103
186441
186764
187093
187422
187756
188079
188404
188739
189056
189368
189697
190035
190372
190704
191047
191386
191721
192058
192398
192731
193057
193395
193719
194046
194373
194704
195030
195353
195691
196023
196348
196681
197013
197343
197672
198011
198337
198656
198976
199314
199640
199959
200197
200573
200908
201225
201546
201874
202193
202518
202847
203169
203493
203819
204146
204472
204794
205128
205452
205774
206104
206429
206743
207059
207388
207713
208036
208362
208699
209036
209367
209713
210053
210383
210712
211045
211382
211708
212044
212381
212707
213036
213371
213706
214039
214381
214719
215046
215382
215718
216048
216382
216722
217056
217385
217718
218052
218387
218711
219048
219382
219702
220026
220343
220671
220982
221294
221620
221934
222253
222558
222884
223196
223506
223824
224019
224369
224673
224981
225287
225492
225833
226150
226456
226757
227061
227377
227695
227999
228186
228328
228645
228970
229288
229491
229868
230192
230512
230835
231152
231471
231797
231990
232136
232287
232461
232713
233099
233427
233602
233746
233892
234227
234587
234916
235253
235594
235919
236257
236589
236930
237276
237619
237961
238302
238648
238985
239327
239658
239990
240325
240657
241011
241351
241690
242032
242380
242726
243068
243415
243764
244113
244454
244814
245159
245492
245834
246179
246530
246863
247205
247549
247891
248234
248581
248925
249269
249617
249959
250305
250658
251012
251355
251703
252054
252392
252735
253080
253428
253764
254109
254452
254786
255124
255469
255807
256145
256490
256843
257185
257535
257896
258238
258574
258927
259265
259596
259919
260256
260576
260903
261239
261556
261883
262213
262541
262867
263193
263528
263854
264169
264495
264828
265154
265476
265814
266146
266466
266785
267125
267458
267789
268142
268490
268826
269166
269507
269847
270182
270523
270848
271169
271502
271838
272177
272518
272867
273213
273549
273894
274242
274581
274913
275260
275594
275921
276253
276593
276929
277256
277599
277929
278263
278596
278927
279257
279587
279931
280265
280592
280921
281255
281588
281916
282251
282588
282916
283236
283568
283898
284214
284542
284869
285202
285532
285873
286220
286551
286900
287235
287556
287891
288232
288561
288885
289229
289572
289901
290238
290579
290921
291257
291602
291939
292268
292595
292927
293246
293559
293894
294216
294538
294867
295198
295527
295847
296045
296417
296747
297069
297390
297723
298054
298388
298613
298984
299328
299660
299985
300223
300585
300919
301238
301549
301866
302200
302537
302852
303182
303511
303840
304176
304510
304742
305124
305465
305798
306124
306425
306775
307106
307433
307620
307767
308007
308362
308711
309052
309396
309597
309975
310335
310677
311012
311360
311713
312059
312394
312744
313083
313417
313760
314107
314452
314801
315160
315513
315865
316216
316563
316900
317256
317606
317946
318287
318637
318983
319318
319667
320003
320340
320682
321027
321366
321702
322038
322371
322703
323035
323368
323690
324010
324347
324672
324994
325328
325676
326009
326335
326675
327002
327342
327670
328005
328334
328550
328945
329294
329630
329969
330305
330633
330968
331313
331657
331989
332322
332672
333004
333334
333537
333924
334265
334600
334937
335268
335594
335934
336262
336578
336907
337248
337581
337906
338247
338586
338923
339256
339604
339951
340301
340651
341007
341356
341714
342084
342454
342832
343197
343552
343915
344275
344631
344970
345323
345682
346019
346365
346717
347052
347388
347728
348066
348399
348746
349102
349451
349816
350187
350550
350920
351296
351670
352032
352406
352764
353114
353466
353815
354159
354504
354846
355178
355519
355857
356190
356527
356881
357231
357577
357923
358279
358629
358965
359316
359650
359986
360327
360666
360910
361281
361630
361966
362287
362618
362962
363291
363620
363955
364296
364634
364965
365162
365319
365690
366038
366382
366712
366911
367299
367644
367983
368311
368657
368994
369329
369665
370009
370359
370703
371060
371409
371759
372114
372466
372813
373165
373522
373866
374225
374585
374952
375306
375670
376017
376353
376695
377046
377393
377734
378094
378439
378778
379123
379462
379797
380125
380465
380796
381136
381480
381832
382173
382525
382879
383222
383567
383911
384260
384606
384972
385328
385675
386038
386406
386756
387103
387451
387791
388136
388476
388816
389152
389489
389824
390165
390501
390835
391169
391464
391816
392146
392468
392790
392985
393127
393496
393817
394152
394458
394798
395126
395451
395653
395862
396240
396587
396916
397133
397290
397659
398012
398342
398675
399025
399362
399697
399887
400039
400416
400756
401089
401422
401753
402087
402415
402743
403073
403419
403755
404073
404389
404709
405040
405357
405664
406003
406325
406646
406968
407300
407629
407954
408295
408628
408960
409298
409649
409987
410331
410679
411018
411346
411695
412050
412387
412725
413072
413408
413742
414070
414409
414733
415057
415392
415715
416041
416367
416637
416797
417142
417493
417834
418156
418495
418836
419170
419496
419834
420178
420510
420840
421176
421517
421845
422188
422529
422862
423199
423533
423861
424178
424512
424835
425150
425475
425808
426142
426477
426820
427166
427507
427841
428187
428526
428856
429200
429530
429854
430179
430513
430847
431171
431509
431842
432167
432508
432851
433192
433528
433877
434215
434551
434891
435230
435557
435878
436213
436539
436799
437167
437502
437831
438027
438403
438752
439086
439428
439756
440094
440417
440741
441068
441381
441690
441896
442248
442560
442873
443096
443250
443592
443913
444239
444433
444583
444723
444897
445249
445595
445845
446034
446373
446745
447091
447288
447426
447743
448088
448419
448752
449078
449403
449720
449938
450096
450468
450811
451154
451495
451836
452175
452516
452853
453184
453516
453864
454194
454433
454826
455159
455478
455757
456094
456416
456728
457039
457345
457644
457946
458228
458402
458736
459076
459415
459745
460074
460414
460747
461073
461393
461723
462047
462370
462698
463024
463355
463673
464002
464329
464636
464956
465276
465593
465912
466225
466551
466874
467189
467508
467730
468108
468439
468775
469096
469413
469735
470051
470373
470690
471013
471343
471660
471985
472312
472646
472969
473289
473629
473958
474286
474619
474968
475298
475629
475966
476295
476631
476969
477309
477644
477979
478326
478656
478979
479303
479629
479952
480277
480608
480935
481262
481595
481940
482267
482595
482933
483270
483600
483932
484265
484587
484914
485245
485570
485900
486222
486561
486885
487213
487548
487867
488060
488415
488740
489056
489361
489693
490026
490342
490664
490992
491316
491632
491957
492287
492611
492932
493255
493583
493904
494237
494565
494884
495211
495537
495860
496176
496496
496823
497145
497463
497786
498115
498436
498751
499078
499397
499710
500026
500336
500640
500941
501241
501546
501851
502161
502475
502774
503116
503431
503764
504086
504397
504720
505042
505363
505680
506006
506334
506656
506976
507294
507609
507912
508220
508534
508842
509148
509456
509775
510093
510404
510731
511063
511257
511420
511721
512126
512477
512808
513147
513478
513803
514125
514450
514767
515084
515422
515741
516056
516384
516714
517032
517345
517671
517984
518291
518480
518828
519144
519445
519742
520053
520353
520643
520942
521251
521561
521864
522173
522481
522784
523089
523395
523698
523994
524287
524595
524893
525184
525482
525781
526094
526404
526715
527039
527353
527665
527984
528308
528620
528933
529257
529572
529882
530191
530508
530827
531139
531453
531767
532072
532376
532678
532993
533297
533590
533898
534205
534506
534814
535040
535408
535722
536028
536345
536657
536961
537271
537593
537908
538222
538544
538860
539171
539490
539810
540129
540441
540762
541088
541400
541723
542045
542369
542685
542995
543327
543644
543945
544253
544569
544878
545186
545505
545824
546137
546451
546766
547086
547395
547703
548019
548325
548632
548944
549263
549572
549880
550203
550520
550828
551145
551464
551779
552088
552404
552720
553023
553325
553624
553928
554217
554404
554749
555045
555341
555526
555873
556189
556498
556801
557123
557440
557745
557973
558151
558520
558865
559184
559518
559844
560159
560472
560782
561085
561385
561697
562006
562318
562632
562942
563258
563571
563884
564205
564511
564823
565134
565448
565759
566065
566384
566697
567004
567322
567640
567959
568269
568580
568900
569216
569522
569833
570159
570474
570785
571114
571436
571754
572075
572391
572711
573025
573346
573665
573978
574296
574610
574933
575244
575548
575866
576178
576489
576801
577119
577427
577734
578056
578369
578675
578981
579291
579610
579915
580231
580559
580871
581191
581512
581830
582147
582459
582781
583102
583419
583738
584066
584387
584704
585032
585348
585655
585975
586295
586608
586916
587240
587556
587867
588182
588494
588810
589124
589439
589756
590063
590375
590686
591004
591315
591622
591938
592249
592555
592857
593168
593488
593788
594102
594416
594720
595034
595341
595650
595960
596267
596585
596895
597208
597532
597850
598167
598487
598807
599130
599448
599766
600085
600406
600677
601032
601364
601683
601996
602311
602633
602945
603249
603578
603900
604212
604530
604852
605184
605499
605816
606143
606466
606783
607101
607428
607745
608061
608379
608686
608997
609305
609628
609943
610254
610581
610895
611080
611447
611767
612082
612395
612710
613026
613332
613638
613955
614275
614587
614903
615235
615550
615860
616169
616490
616807
617116
617437
617760
618078
618395
618711
619035
619356
619686
620015
620329
620654
620971
621285
621595
621913
622228
622543
622862
623183
623515
623837
624151
624476
624792
625103
625420
625742
626056
626365
626685
627000
627303
627615
627926
628243
628558
628867
629185
629499
629815
630130
630453
630772
631089
631422
631738
632053
632369
632682
632999
633304
633612
633922
634222
634531
634839
635156
635468
635778
636103
636421
636611
636984
637315
637641
637962
638295
638615
638925
639244
639553
639876
640187
640495
640814
641130
641444
641756
642080
642402
642715
643039
643225
643585
643913
644235
644562
644886
645210
645537
645738
646105
646445
646778
647090
647403
647723
648033
648338
648648
648966
649277
649583
649903
