77
358
643
889
1190
1479
1776
2070
2332
2643
2938
3189
3519
3830
4106
4403
4688
4973
5233
5570
5890
6191
6482
6774
7029
7329
7607
7892
8198
8477
8760
9041
9292
9603
9915
10194
10513
10780
11071
11354
11639
11906
12240
12545
12818
13123
13403
13671
13960
14250
14549
14865
15135
15421
15706
15959
16273
16570
16858
17146
17412
17718
17994
18253
18571
18858
19152
19434
19710
19998
20280
20541
20876
21170
21455
21734
22042
22302
22583
22910
23201
23473
23785
24081
24345
24631
24918
25216
25534
25803
26123
26398
26679
26985
27278
27601
27893
28188
28455
28766
29045
29341
29662
29952
30228
30542
30823
31087
31396
31691
31979
32274
32566
32824
33125
33389
33696
33992
34289
34590
34896
35188
35482
35799
36121
36431
36741
37056
37316
37631
37958
38277
38601
38912
39218
39522
39815
40137
40462
40771
41036
41361
41664
41938
42267
42573
42860
43175
43465
43740
44044
44337
44638
44958
45237
45527
45828
46090
46373
46680
46976
47263
47547
47813
48097
48375
48644
48962
49235
49522
49805
50085
50387
50654
50957
51260
51562
51838
52156
52433
52704
53035
53327
53634
53921
54234
54496
54811
55107
55397
55721
56015
56314
56601
56901
57170
57477
57789
58092
58372
58683
58949
59243
59546
59851
60127
60446
60714
61024
61293
61590
61885
62190
62480
62793
63074
63357
63666
63954
64287
64597
64906
65205
65512
65815
66132
66422
66748
67056
67324
67646
67912
68217
68541
68840
69137
69432
69690
70002
70290
70589
70916
71203
71467
71779
72053
72338
72645
72938
73229
73542
73803
74112
74391
74660
74999
75331
75632
75917
76191
76479
76775
77081
77390
77660
77984
78258
78555
78873
79171
79500
79776
80104
80387
80663
80977
81257
81596
81902
82199
82460
82777
83074
83384
83692
84004
84265
84581
84851
85151
85450
85725
86061
86351
86628
86943
87211
87498
87825
88125
88393
88714
89016
89281
89589
89893
90197
90511
90791
91060
91376
91649
91944
92246
92547
92831
93098
93408
93673
93959
94259
94543
94854
95143
95419
95700
95968
96269
96568
96841
97157
97449
97714
98028
98299
98603
98908
99207
99485
99777
100067
100325
100654
100967
101247
101540
101825
102105
102390
102686
102986
103316
103581
103901
104189
104474
104792
105095
105386
105711
106012
106277
106592
106888
107188
107522
107791
108087
108398
108664
108970
109272
109549
109873
110161
110450
110735
110989
111306
111601
111896
112194
112482
112760
113046
113333
113615
113951
114233
114529
114818
115108
115367
115710
116039
116358
116678
116989
117289
117579
117891
118173
118518
118838
119138
119431
119726
120056
120373
120680
120943
121260
121568
121828
122147
122450
122747
123064
123359
123623
123934
124201
124543
124830
125154
125427
125734
126004
126297
126603
126888
127190
127475
127740
128051
128316
128613
128908
129200
129490
129775
130036
130347
130605
130912
131213
131510
131771
132091
132366
132623
132954
133249
133522
133840
134117
134384
134697
134972
135272
135564
135857
136151
136438
136735
136993
137297
137600
137885
138183
138470
138730
139045
139317
139646
139925
140218
140506
140788
141074
141331
141665
141973
142254
142572
142866
143130
143429
143728
144045
144326
144645
144931
145214
145489
145809
146101
146400
146713
146992
147285
147589
147859
148158
148485
148785
149058
149369
149650
149910
150239
150523
150851
151130
151423
151711
151976
152308
152634
152944
153248
153558
153864
154172
154479
154786
155107
155381
155715
156039
156338
156656
156982
157301
157603
157895
158190
158455
158776
159110
159423
159725
159998
160313
160576
160889
161177
161513
161787
162103
162376
162663
162947
163228
163564
163845
164124
164439
164728
165027
165308
165614
165902
166224
166496
166824
167083
167405
167691
168049
168368
168649
168945
169207
169536
169823
170157
170451
170743
171033
171343
171607
171918
172230
172503
172828
173097
173405
173681
173954
174292
174585
174855
175153
175436
175691
176006
176293
176589
176878
177149
177442
177701
177983
178268
178565
178868
179159
179431
179742
180010
180275
180615
180901
181203
181468
181788
182051
182333
182642
182941
183213
183530
183810
184093
184376
184658
184934
185264
185539
185838
186124
186384
186671
186973
187281
187557
187872
188146
188428
188721
188994
189321
189604
189889
190185
190478
190736
191053
191380
191693
192000
192160
192544
192785
193202
193564
193734
194133
194299
194651
194815
195186
195351
195711
195878
196082
196252
196441
196626
196821
196969
197350
197747
198152
198537
198913
199283
199635
199943
200242
200552
200818
201118
201382
201549
201978
202347
202696
203013
203327
203586
203868
204130
204624
204816
205201
205363
205696
205863
206057
206222
206524
206700
206811
206989
207177
207409
207616
207791
207972
208155
208343
208509
208708
208903
209085
209418
209612
209770
209935
210111
210454
210849
211267
211709
212161
212524
212848
213222
213526
213822
214121
214419
214700
215006
215289
215617
215896
216210
216482
216760
217069
217379
217689
217969
218283
218578
218842
219151
219466
219741
220068
220224
220611
220849
221222
221493
221834
222006
222391
222791
222953
223333
223511
223924
224112
224458
224623
225003
225173
225361
225575
225734
225903
226062
226197
226413
226616
226762
226928
227100
227304
227483
227643
227847
228034
228285
228520
228731
229034
229210
229407
229595
229884
230291
230682
231097
231509
231894
232283
232675
233044
233353
233641
233914
234183
234480
234780
235066
235350
235628
235884
236190
236465
236759
237058
237332
237620
237914
238190
238459
238758
239059
239348
239660
239945
240222
240502
240766
241077
241380
241649
241959
242238
242492
242795
242960
243349
243524
243852
244019
244385
244614
244958
245124
245485
245654
246027
246280
246654
246813
247161
247334
247726
248022
248172
248564
248871
249032
249403
249655
249817
250231
250404
250599
250839
251012
251196
251366
251528
251846
252010
252212
252390
252577
252757
252928
253085
253238
253415
253600
253989
254373
254825
255287
255724
256140
256480
256650
257057
257224
257622
257792
257965
258157
258564
258739
259174
259345
259594
259746
259938
260154
260431
260684
260911
261104
261273
261486
261718
261878
262077
262241
262408
262602
262787
262965
263159
263326
263500
263680
263832
264014
264197
264375
264685
264881
265141
265368
265564
265943
266350
266804
267251
267427
267827
268243
268627
269012
269184
269564
269928
270280
270437
270755
270956
271101
271457
271627
271770
271906
272036
272219
272406
272537
272679
272841
273001
273179
273376
273541
274005
274342
274731
275146
275582
276015
276204
276497
276653
277029
277404
277581
277990
278168
278313
278465
278589
278728
278857
278998
279143
279513
279906
280288
280656
280983
281275
281551
281833
282133
282431
282722
283019
283293
283574
283859
284152
284464
284772
285038
285357
285516
285917
286087
286374
286840
287029
287513
287760
288055
288512
288695
288947
289107
289313
289544
289764
289937
290109
290322
290512
290693
291081
291452
291812
292160
292494
292843
293195
293491
293780
294063
294358
294625
294922
295251
295541
295836
296130
296420
296702
297027
297344
297633
297964
298127
298372
298522
298689
298871
299030
299199
299360
299560
299999
300365
300751
301120
301513
301899
302064
302410
302598
302850
303194
303547
303902
304101
304238
304441
304607
304781
305139
305492
305831
306145
306451
306722
307005
307281
307545
307826
308136
308433
308695
309008
309285
309545
309869
310036
310452
310630
310782
311112
311272
311491
311696
312010
312174
312408
312588
312749
312924
313082
313250
313631
313957
314380
314839
315007
315465
315672
315868
316287
316464
316719
316879
317106
317261
317429
317573
317713
317855
318143
318268
318490
318699
318946
319390
319800
320170
320523
320694
321066
321428
321756
322091
322412
322685
322995
323277
323568
323855
324142
324411
324686
324961
325237
325554
325717
326113
326287
326526
326844
326995
327237
327400
327543
327682
327945
328300
328666
328970
329288
329612
329953
330261
330576
330879
331174
331474
331752
331922
332332
332707
332867
333113
333278
333415
333602
333751
333962
334138
334314
334481
334706
334848
335117
335309
335517
335793
335975
336148
336458
336673
336886
337088
337451
337816
338195
338644
339049
339430
339801
340162
340462
340765
341047
341376
341654
341938
342218
342512
342800
343239
343674
344045
344204
344611
344789
344923
345142
345311
345491
345658
345812
345978
346131
346291
346470
346714
346894
347387
347787
348198
348636
348807
349053
349264
349448
349626
349886
350224
350422
350611
350820
350975
351203
351403
351619
351839
352005
352227
352402
352609
352828
353052
353290
353443
353629
353866
354054
354271
354532
354703
354910
355065
355310
355748
356000
356210
356394
356682
356971
357165
357417
357620
357922
358184
358419
358692
358893
359121
359355
359613
359815
360027
360333
360558
360743
360889
361037
361166
361378
361555
361821
362029
362200
362368
362515
362674
362853
363076
363331
363558
363825
364090
364307
364466
364622
364756
364980
365300
365456
365679
365907
366091
366348
366540
366789
366998
367255
367543
367792
367962
368189
368388
368583
368811
369019
369317
369492
369633
369930
370087
370220
370519
370776
370933
371085
371255
371423
371565
371791
371969
372155
372370
372533
372678
372938
373090
373354
373560
373750
373897
374048
374311
374540
374782
375089
375393
375580
375874
376096
376275
376490
376667
376809
376956
377299
377550
377714
377987
378248
378484
378627
378772
379042
379222
379394
379621
379980
380216
380453
380608
380821
380957
381247
381536
381714
381862
382051
382259
382421
382651
382863
383130
383392
383622
383777
383908
384110
384253
384400
384659
384920
385127
385278
385502
385670
385818
385972
386232
386408
386639
386903
387104
387556
388015
388206
388535
388937
389111
389525
389687
390140
390314
390749
391165
391541
391902
392061
392426
392790
393060
393359
393627
393900
394186
394473
394779
395085
395363
395642
395948
396221
396520
396828
397116
397409
397703
397954
398256
398533
398837
399131
399437
399718
400000
400260
400571
400857
401149
401451
401746
402015
402323
402592
402895
403169
403326
403764
403939
404320
404551
404888
405156
405310
405714
405970
406284
406576
406879
407025
407412
407582
407943
408261
408558
408854
409140
409455
409769
410083
410359
410665
410924
411229
411495
411980
412371
412532
412897
413214
413504
413664
414053
414302
414702
415049
415200
415574
415743
416115
416292
416659
416823
417204
417430
417835
418111
418558
418734
419092
419259
419633
419795
420150
420322
420718
420884
421267
421435
421787
421943
422327
422503
422874
423045
423297
423712
424105
424316
424477
424828
425008
425346
425521
425885
426055
426397
426574
426934
427155
427513
427739
428080
428253
428574
428767
429119
429342
429488
429797
430001
430312
430524
430848
431048
431394
431603
431943
432143
432477
432661
432988
433188
433331
433673
433881
434223
434390
434725
434906
435278
435456
435847
436014
436377
436551
436893
437052
437420
437594
437969
438139
438508
438674
439034
439205
439308
439560
439729
439939
440124
440428
440600
440730
441001
441198
441355
441519
441696
442078
442411
442795
443198
443601
444010
444232
444650
444822
445007
445413
445576
445766
446170
446340
446600
446763
446934
447085
447235
447398
447554
447705
447888
448376
448738
449216
449688
449853
450044
450501
450679
450947
451353
451523
451772
452151
452308
452576
452773
452993
453148
453300
453444
453691
453872
454015
454218
454373
454526
454692
455154
455557
455981
456373
456752
457136
457514
457713
458054
458271
458393
458595
458917
459261
459481
459628
459764
459948
460128
460305
460495
460653
460842
460950
461099
461328
461608
461913
462238
462565
462853
462997
463144
463381
463623
463777
464029
464356
464676
464981
465252
465544
465828
466119
466273
466403
466554
466728
467037
467365
467702
468036
468338
468480
468611
468959
469270
469425
469537
469698
469980
470270
470583
470855
471131
471409
471660
471952
472116
472533
472701
472956
473115
473252
473622
473781
473964
474340
474511
474708
475091
475288
475664
475906
476042
476417
476602
476737
476921
477100
477409
477714
477992
478315
478478
478621
478768
478958
479179
479307
479476
479731
479888
480037
480346
480688
481062
481407
481738
482095
482394
482544
482688
482826
483012
483222
483467
483646
483832
484007
484157
484318
484470
484828
485182
485591
485938
486380
486813
486977
487402
487587
487897
488059
488281
488450
488615
488779
488907
489197
489470
489664
489815
489988
490413
490737
491110
491566
492022
492433
492600
492976
493142
493415
493577
493846
494044
494228
494371
494603
494817
494984
495176
495337
495681
496059
496424
496780
497217
497667
498048
498213
498440
498601
498756
498918
499086
499241
499470
499678
499845
500247
500629
501100
501548
501910
502241
502618
502783
503194
503559
503716
503957
504098
504299
504451
504870
505203
505522
505826
506118
506416
506724
507022
507297
507613
507766
508152
508538
508710
508960
509119
509316
509497
509679
509892
510244
510599
510985
511282
511575
511877
512163
512435
512703
513015
513319
513598
513918
514077
514333
514822
515087
515528
515705
515957
516385
516739
516896
517110
517266
517469
517700
518011
518431
518843
519019
519276
519719
520147
520351
520503
520659
521021
521421
521608
521813
522220
522393
522572
522796
522962
523106
523251
523396
523626
524120
524585
525019
525414
525618
525770
526144
526324
526716
526948
527097
527299
527463
527676
527806
527964
528101
528366
528780
529173
529336
529590
529738
529918
530370
530791
531214
531599
531973
532333
532676
532842
532974
533167
533364
533527
533728
533898
534057
534234
534433
534609
534928
535281
535653
535989
536314
536612
536917
537224
537520
537861
538134
538419
538695
538990
539153
539279
539467
539593
539925
540157
540343
540509
540738
541042
541247
541384
541607
541814
541973
542277
542447
542647
542977
543339
543712
544061
544406
544738
545010
545284
545567
545846
546124
546394
546659
546914
547178
547436
547719
547994
548279
548554
548827
549090
549352
549634
549926
550210
550495
550775
551027
551337
551608
551880
552181
552474
552626
552872
553031
553167
553323
553485
553677
553828
553985
554177
554372
554538
554722
554858
555010
555166
555324
555486
555649
555855
556099
556283
556757
557092
557501
557960
558411
558811
559146
559494
559776
560046
560312
560602
560888
561204
561503
561766
562051
562337
562622
562925
563232
563518
563790
564107
564387
564668
564976
565136
565355
565523
565677
565850
565997
566144
566286
566448
566593
566754
566914
567076
567242
567410
567590
567748
567938
568252
568658
569107
569588
570041
570425
570744
570899
571099
571272
571412
571627
572053
572452
572832
573199
573573
573943
574253
574403
574543
574889
575190
575339
575466
575606
575776
575983
576176
576407
576550
576762
577024
577224
577404
577529
577685
577947
578166
578484
578625
578739
578895
579036
579181
579345
579584
579762
579931
580128
580379
580578
580735
580881
581030
581231
581463
581670
581851
582065
582297
582598
582846
582978
583219
583421
583654
583914
584112
584294
584579
584783
585000
585209
585430
585690
585861
586119
586308
586560
586929
587114
587249
587383
587608
587820
588068
588360
588592
588845
589003
589238
589457
589710
589941
590103
590281
590452
590703
590965
591185
591371
591626
591887
592224
592460
592617
592775
593082
593305
593440
593569
593695
593951
594207
594346
594548
594764
594938
595093
595249
595415
595649
595826
596048
596262
596487
596735
596914
597076
597270
597428
597711
597903
598040
598207
598502
598785
599021
599194
599469
599626
599880
600087
600265
600567
600859
601065
601191
601478
601728
601944
602240
602416
602691
602921
603085
603316
603461
603727
603907
604102
604397
604699
604897
605070
605370
605533
605745
605956
606153
606312
606594
606770
607030
607225
607428
607642
607888
608087
608255
608536
608721
608880
609034
609269
609517
609799
609985
610148
610344
610600
610811
611053
611340
611499
611702
611928
612081
612230
612518
612764
612919
613217
613436
613572
613796
613961
614178
614403
614614
614870
615039
615297
615450
615649
615790
615915
616116
616417
616698
616985
617302
617514
617771
617945
618095
618349
618522
618670
618811
619039
619339
619507
619744
619935
620076
620286
620510
620663
620947
621110
621399
621581
621757
621894
622093
622264
622522
622767
623032
623263
623496
623813
623982
624215
624443
624585
624837
625127
625349
625489
625750
625917
626207
626356
626490
626715
626955
627288
627524
627748
627948
628154
628423
628680
628872
629104
629411
629604
629756
629885
630171
630409
630621
630880
631184
631403
631643
631821
631969
632223
632450
632636
632908
633134
633357
633530
633797
634089
634335
634506
634742
634892
635210
635384
635624
635833
636034
636303
636615
636852
637055
637242
637422
637613
637815
638045
638370
638523
638709
638994
639130
639402
639659
639866
640030
640262
640509
640709
640942
641231
641412
641569
641689
641899
642109
642322
642657
642935
643149
643367
643558
643873
644039
644249
644382
644631
644816
644980
645241
645436
645564
645826
645979
646298
646458
646678
646975
647133
647384
647552
647719
648052
648237
648492
648716
648983
649154
649315
649598
649857
