157
430
723
1059
1362
1648
1933
2219
2497
2790
3092
3400
3691
3984
4273
4540
4818
5094
5440
5607
5779
6079
6292
6633
6813
7195
7405
7824
8017
8392
8573
8929
9120
9502
9700
10096
10296
10654
10834
11197
11384
11774
11981
12400
12710
13009
13284
13572
13894
14236
14566
14895
15188
15463
15761
16105
16470
16822
17094
17392
17677
17994
18359
18680
19122
19405
19692
19905
20147
20747
21120
21435
21705
21997
22304
22622
22866
23282
23598
23889
24064
24469
24682
25107
25418
25731
26018
26300
26582
26884
27220
27554
27887
28167
28448
28733
29033
29349
29656
29876
30243
30530
30827
31124
31429
31732
31932
32325
32515
32887
33178
33477
33669
34112
34324
34719
34898
35288
35488
35934
36172
36602
36790
37180
37404
37879
38138
38587
38791
39167
39376
39835
40095
40327
40565
40805
41217
41560
41997
42406
42758
43081
43386
43699
44073
44466
44804
45109
45414
45731
46052
46396
46643
47067
47267
47646
47872
48254
48564
48896
49219
49517
49787
50072
50370
50669
50992
51312
51611
51883
52074
52477
52681
53111
53308
53722
54005
54291
54508
54934
55256
55561
55872
56178
56380
56742
57023
57314
57604
57823
58187
58454
58720
58918
59327
59658
59987
60277
60552
60738
61113
61327
61783
62124
62424
62700
62985
63296
63671
64000
64325
64631
64922
65220
65569
65857
66263
66598
66916
67210
67528
67868
68228
68541
68862
69159
69441
69662
70059
70408
70747
71056
71331
71607
71912
72207
72466
72872
73175
73454
73726
74028
74347
74702
74958
75345
75627
75908
76202
76538
76882
77206
77513
77810
78001
78386
78580
78997
79306
79610
79807
80156
80437
80721
81039
81387
81725
82005
82269
82457
82855
83069
83522
83864
84153
84424
84734
84957
85401
85709
86036
86314
86586
86880
87184
87529
87860
88229
88575
88881
89189
89520
89878
90220
90491
90925
91231
91542
91875
92232
92568
92894
93188
93483
93776
94085
94405
94705
94992
95277
95574
95801
96210
96515
96805
97092
97384
97675
97973
98297
98595
98895
99198
99488
99695
99908
100056
100295
100499
100704
101013
101332
101474
101596
101882
102160
102466
102776
103093
103383
103661
103934
104222
104536
104859
105159
105448
105647
106043
106350
106650
106974
107285
107478
107885
108174
108478
108767
109087
109409
109622
109998
110179
110565
110865
111181
111522
111835
112129
112390
112674
113000
113307
113619
113916
114210
114472
114746
115059
115383
115699
115983
116304
116591
116869
117147
117455
117758
118050
118238
118648
118915
119179
119458
119784
120013
120067
120398
120674
120938
121207
121480
121783
122122
122439
122735
123014
123294
123495
123879
124090
124493
124698
125077
125260
125629
125818
126212
126420
126847
127059
127427
127608
127998
128204
128742
128984
129410
129602
129980
130229
130823
131109
131545
131731
132101
132296
132757
133000
133497
133713
134135
134334
134758
134984
135487
135721
136137
136326
136722
136934
137134
137353
137602
138083
138286
138661
138855
139262
139470
139926
140138
140519
140704
141112
141316
141744
141957
142381
142572
142950
143157
143581
143785
144193
144422
144830
145021
145404
145618
146027
146233
146668
146863
147234
147426
147842
148065
148456
148667
149061
149251
149627
149840
150243
150447
150866
151093
151498
151701
152101
152316
152742
152985
153408
153605
153978
154188
154637
154860
155282
155590
155895
156191
156530
156885
157073
157502
157816
158130
158434
158754
158961
159386
159568
159974
160284
160587
160899
161205
161419
161840
162146
162442
162743
163043
163251
163684
163983
164267
164559
164869
165187
165386
165823
166117
166398
166694
167000
167201
167622
167932
168253
168540
168834
169128
169329
169734
170052
170374
170659
170946
171245
171574
171897
172215
172520
172822
173119
173440
173772
174107
174431
174755
174965
175428
175635
176092
176306
176756
176961
177381
177612
178099
178362
178879
179098
179492
179691
180189
180424
180894
181106
181505
181696
182173
182430
182902
183124
183525
183708
184117
184349
184837
185046
185481
185690
186091
186286
186721
186961
187393
187606
188005
188193
188580
188928
189306
189642
189942
190230
190515
190815
191166
191515
191824
192128
192313
192707
192903
193304
193638
193952
194251
194532
194820
195010
195432
195818
196159
196341
196741
196951
197337
197681
198070
198394
198685
198977
199280
199603
199829
200267
200591
200891
201182
201399
201777
202089
202449
202801
203011
203371
203664
203973
204283
204625
204968
205260
205532
205723
206134
206333
206756
207073
207360
207633
207829
208222
208544
208850
209178
209487
209765
210051
210353
210665
210970
211165
211613
211803
212182
212485
212812
213134
213446
213742
214026
214303
214600
214919
215230
215525
215841
216140
216426
216714
217021
217337
217643
217971
218275
218564
218748
219166
219514
219852
220060
220457
220643
221037
221242
221690
221921
222366
222675
223000
223333
223660
223980
224197
224628
224918
225220
225539
225848
226168
226516
226845
227121
227414
227614
228037
228353
228671
228973
229258
229559
229887
230215
230522
230828
231131
231429
231734
232055
232377
232681
233001
233318
233628
233828
234248
234446
234880
235216
235513
235811
236112
236448
236777
237094
237397
237700
238003
238304
238622
238951
239269
239593
239906
240114
240530
240866
241181
241508
241839
242136
242339
242752
243103
243433
243640
244056
244273
244688
244910
245380
245594
246019
246319
246636
246969
247284
247610
247925
248233
248541
248850
249171
249479
249824
250158
250366
250760
250949
251364
251571
252010
252212
252610
252794
253209
253416
253839
254048
254471
254656
255044
255243
255672
255908
256317
256528
256950
257141
257525
257719
258136
258454
258783
259076
259353
259639
259960
260291
260615
260923
261223
261501
261701
262124
262467
262797
263111
263436
263733
263921
264342
264683
264996
265311
265620
265903
266199
266509
266916
267139
267587
267880
268169
268466
268784
269173
269517
269822
270114
270439
270773
271111
271463
271796
271972
272394
272707
273017
273345
273703
274047
274353
274647
274826
275270
275471
275988
276195
276597
276782
277225
277437
277919
278146
278576
278760
279173
279382
279815
280024
280490
280692
281080
281270
281682
281881
282331
282572
282980
283166
283568
283795
284280
284531
284978
285169
285562
285768
286233
286451
286889
287105
287505
287804
288108
288439
288760
289120
289359
289743
290040
290353
290684
291006
291340
291537
291923
292210
292522
292859
293182
293501
293803
294098
294402
294726
295038
295345
295651
295963
296256
296543
296844
297155
297486
297803
298113
298393
298685
298983
299297
299622
299936
300119
300527
300837
301148
301459
301769
302084
302387
302680
302973
303288
303598
303921
304254
304572
304858
305158
305481
305815
306160
306494
306816
307113
307447
307812
308170
308493
308807
308980
309414
309748
310108
310445
310779
311141
311457
311758
311965
312451
312780
313095
313414
313723
314031
314371
314731
315075
315375
315687
315993
316324
316675
317010
317314
317605
317937
318255
318580
318896
319118
319519
319820
320149
320460
320766
321091
321433
321757
322043
322358
322677
323003
323344
323668
323962
324241
324562
324886
325216
325539
325854
326145
326444
326782
327108
327440
327789
328143
328456
328760
329118
329462
329824
330203
330394
330834
331163
331550
331916
332290
332631
332937
333256
333689
334044
334410
334752
335066
335389
335750
336133
336465
336790
337105
337427
337751
338106
338445
338791
339122
339416
339720
340033
340391
340741
341062
341369
341540
341975
342301
342688
343006
343315
343604
343903
344218
344544
344881
345210
345535
345841
346129
346429
346746
347010
347403
347705
347996
348285
348598
348924
349280
349582
349885
350175
350472
350798
351128
351485
351799
352134
352447
352762
353080
353416
353761
354080
354400
354714
355026
355362
355798
356165
356459
356758
357070
357390
357718
358095
358420
358711
358926
359346
359683
360006
360354
360657
360969
361300
361626
361948
362274
362644
362952
363128
363571
363914
364237
364585
364931
365223
365396
365844
366204
366551
366883
367214
367511
367836
368183
368513
368829
369166
369487
369800
370115
370329
370769
370972
371449
371625
372035
372331
372730
373066
373395
373721
374017
374355
374594
375099
375442
375762
376074
376409
376800
377196
377544
377865
378212
378547
378911
379302
379589
379992
380323
380633
380957
381312
381648
382000
382307
382627
382924
383272
383642
383988
384293
384594
384892
385122
385557
385765
386207
386517
386828
387137
387448
387772
387974
388417
388728
389028
389342
389652
390000
390357
390699
390995
391288
391588
391911
392263
392595
392900
393199
393525
393855
394187
394520
394864
395183
395488
395818
396156
396493
396847
397216
397532
397829
398165
398490
398830
399193
399517
399788
400130
400555
400943
401283
401612
401914
402217
402414
402964
403325
403657
403977
404286
404611
404968
405313
405639
405967
406273
406570
406880
407225
407587
407924
408221
408507
408814
409139
409355
409839
410158
410448
410754
411068
411426
411782
412000
412418
412609
413027
413340
413667
414002
414349
414674
414960
415131
415574
415935
416303
416636
416943
417236
417571
417938
418197
418681
419015
419313
419567
419976
420319
420710
421052
421380
421704
422029
422392
422803
423209
423551
423870
424203
424563
424984
425401
425726
426039
426360
426709
427088
427494
427825
428133
428477
428834
429183
429526
429862
430173
430495
430831
431166
431498
431857
432178
432484
432797
433127
433453
433787
434120
434427
434727
435056
435282
435745
436049
436368
436649
436957
437282
437600
437912
438100
438863
439181
439485
439807
440113
440329
440789
441102
441407
441603
442100
442477
442814
443126
443438
443745
444067
444292
444747
445060
445381
445759
446133
446468
446790
446993
447378
447706
448057
448388
448709
448907
449307
449620
449978
450327
450653
450780
450939
451245
451535
451843
452171
452497
452695
453093
453428
453715
453985
454284
454503
454915
455124
455511
455792
456052
456336
456685
457011
457340
457634
457919
458180
458473
458814
459099
459464
459747
460031
460314
460602
460898
461223
461543
461832
462123
462406
462602
462984
463307
463675
464037
464356
464550
464914
465144
465642
465911
466367
466662
466933
467229
467629
467957
468555
468866
469161
469514
469932
470322
470611
471023
471211
471618
471951
472494
472895
473191
473483
473780
474117
474413
474914
475244
475515
475708
476140
476481
476810
477122
477429
477703
477912
478324
478533
478964
479170
479600
479892
480200
480493
480790
481088
481397
481726
482017
482237
482611
482937
483273
483596
483888
484171
484457
484756
485063
485372
485688
485881
486265
486581
486903
487208
487515
487847
488138
488445
488778
489123
489437
489750
490134
490460
490794
491111
491441
491743
492073
492426
492741
492984
493430
493841
494227
494568
494874
495201
495567
495925
496267
496601
496902
497192
497535
497917
498269
498598
498890
499171
499471
499808
500156
500494
500791
500983
501400
501708
502034
502374
502696
503006
503194
503604
503906
504118
504543
504894
505214
505505
505675
506045
506259
506743
506975
507383
507563
507950
508148
508598
508834
509264
509459
509852
510047
510465
510679
511170
511379
511815
512015
512425
512619
513091
513345
513622
513801
514018
514221
514419
514628
515048
515305
515637
515897
516146
516539
516749
517215
517460
518008
518255
518664
518863
519324
519568
520072
520308
520718
520909
521354
521584
522047
522270
522706
522906
523326
523555
523974
524178
524607
524822
525219
525407
525846
526048
526482
526816
527123
527389
527674
527893
528296
528642
528967
529264
529540
529853
530195
530445
530844
530995
531434
531724
532009
532236
532618
532975
533296
533481
533870
534049
534497
534826
535039
535482
535789
536054
536392
536780
537124
537447
537754
538053
538261
538697
539089
539430
539724
539848
540089
540402
540738
541066
541417
541738
541981
542296
542551
542952
543274
543637
543975
544276
544543
544862
545163
545495
545833
546141
546433
546728
547035
547341
547656
547961
548270
548562
548849
549166
549465
549750
550085
550411
550715
550902
551291
551588
551775
552219
552552
552843
553123
553417
553686
553883
554360
554676
554977
555259
555561
555869
556197
556510
556844
557051
557462
557730
558079
558421
558759
558956
559402
559583
559986
560307
560666
561039
561359
561661
561958
562278
562618
562987
563348
563644
563844
564239
564586
564925
565250
565497
565889
566190
566490
566826
567041
567472
567811
568109
568387
568675
569005
569330
569652
569972
570258
570539
570848
571188
571513
571820
572129
572402
572711
573015
573358
573667
573986
574321
574626
574901
575188
575506
575704
576150
576477
576770
577053
577357
577634
577866
578355
578550
578971
579161
579583
579913
580265
580587
580917
581109
581504
581692
582140
582350
582801
583020
583423
583605
584047
584276
584765
585089
585390
585672
585966
586177
586406
586619
586846
587248
587547
587858
588164
588343
588766
589090
589398
589701
589987
590271
590565
590835
591226
591540
591826
592000
592393
592578
592806
593011
593331
593482
593634
593919
594211
594511
594696
595114
595432
595742
596024
596330
596615
596912
597213
597404
597876
598067
598452
598740
599034
599345
599563
600010
600210
600599
600904
601231
601562
601792
602183
602413
602810
603113
603420
603741
603943
604397
604622
605026
605206
605640
605970
606292
606649
606957
607234
607526
607853
608182
608462
608823
609125
609416
609718
610054
610259
610680
610879
611319
611503
611925
612119
612558
612751
613191
613403
613788
614084
614407
614752
615070
615372
615563
615950
616262
616585
616915
617225
617531
617727
618134
618438
618743
619050
619361
619669
619988
620262
620556
620750
621194
621515
621832
622138
622423
622600
623044
623399
623723
624039
624355
624660
624858
625315
625637
625958
626254
626581
626880
627211
627555
627902
628232
628541
628838
629132
629437
629764
630103
630413
630705
631005
631320
631511
631978
632201
632605
632861
633186
633492
633693
634108
634420
634751
635044
635337
635617
635927
636239
636556
636874
637151
637443
637631
638065
638397
638716
639008
639211
639583
639769
640174
640472
640793
641107
641410
641596
641979
642161
642583
642792
643208
643514
643800
644091
644396
644736
644947
645380
645680
645969
646267
646576
646908
647106
647511
647844
648060
648462
648774
649105
649323
649759
