77
351
617
882
1140
1403
1667
1929
2201
2467
2726
2985
3244
3501
3764
4027
4299
4569
4842
5116
5386
5663
5928
6195
6460
6734
7007
7264
7526
7778
8026
8275
8526
8784
9054
9331
9597
9872
10156
10438
10719
10989
11262
11534
11807
12081
12360
12646
12925
13208
13499
13779
14055
14332
14610
14876
15153
15436
15710
15986
16271
16572
16870
17166
17454
17731
18011
18282
18563
18854
19137
19416
19694
19983
20274
20563
20837
21114
21398
21692
22000
22304
22598
22898
23203
23496
23781
24061
24352
24652
24950
25248
25546
25830
26092
26356
26625
26887
27162
27450
27743
28036
28333
28635
28925
29214
29498
29787
30085
30384
30673
30954
31224
31499
31792
32082
32379
32675
32983
33292
33586
33872
34158
34442
34722
35013
35314
35624
35950
36262
36578
36893
37186
37478
37765
38059
38358
38669
38979
39270
39555
39839
40126
40404
40685
40969
41244
41534
41831
42140
42441
42748
43067
43376
43671
43948
44221
44489
44759
45033
45299
45568
45839
46114
46392
46664
46950
47273
47599
47932
48249
48549
48842
49138
49426
49710
49994
50270
50551
50838
51127
51422
51716
52003
52294
52596
52890
53176
53458
53731
54008
54276
54547
54821
55094
55376
55670
55960
56235
56506
56770
57036
57296
57565
57841
58114
58389
58661
58945
59239
59522
59793
60046
60296
60538
60777
61017
61264
61506
61753
61999
62258
62517
62765
63018
63265
63510
63759
64001
64249
64497
64733
64972
65205
65438
65673
65903
66130
66348
66566
66784
67016
67257
67517
67796
68078
68351
68609
68862
69106
69338
69570
69794
70019
70254
70491
70737
70999
71261
71522
71784
72058
72326
72583
72844
73094
73345
73597
73848
74111
74382
74645
74905
75166
75431
75694
75954
76217
76482
76738
76989
77240
77488
77728
77965
78197
78429
78664
78904
79147
79399
79646
79899
80157
80420
80674
80932
81179
81428
81674
81916
82162
82398
82628
82855
83090
83340
83590
83848
84108
84364
84612
84851
85101
85349
85586
85831
86073
86335
86604
86854
87105
87353
87603
87850
88093
88340
88591
88836
89083
89329
89591
89864
90122
90386
90665
90920
91173
91424
91685
91958
92230
92489
92742
93001
93258
93526
93796
94058
94311
94561
94827
95125
95431
95743
96050
96341
96609
96878
97137
97383
97633
97875
98116
98360
98596
98837
99073
99322
99574
99817
100068
100311
100561
100824
101087
101361
101626
101875
102136
102406
102690
102989
103328
103648
103978
104313
104665
105026
105348
105652
105964
106292
106647
107008
107360
107709
108050
108392
108725
109052
109400
109754
110086
110415
110754
111081
111418
111770
112094
112406
112749
113103
113441
113783
114086
114389
114713
115035
115357
115695
116039
116390
116731
117071
117422
117761
118086
118420
118765
119128
119495
119838
120174
120525
120866
121212
121559
121900
122256
122606
122913
123223
123542
123888
124225
124541
124847
125152
125469
125806
126149
126467
126767
127071
127391
127738
128093
128442
128789
129105
129402
129685
129970
130264
130575
130920
131268
131617
131934
132251
132543
132834
133139
133467
133799
134164
134539
134895
135245
135596
135931
136265
136581
136911
137259
137593
137929
138267
138621
138974
139321
139662
139981
140285
140590
140903
141226
141563
141899
142252
142607
142946
143281
143630
144000
144368
144704
145048
145406
145747
146096
146447
146804
147168
147500
147824
148147
148479
148830
149156
149473
149800
150127
150460
150779
151100
151434
151781
152127
152448
152768
153096
153403
153740
154098
154463
154836
155159
155486
155814
156138
156439
156731
157039
157360
157687
158022
158374
158716
159057
159361
159664
159969
160291
160614
160936
161232
161516
161795
162086
162399
162707
163033
163364
163698
163994
164282
164567
164847
165134
165436
165761
166090
166400
166720
167040
167347
167653
167960
168270
168591
168916
169215
169523
169837
170167
170488
170794
171096
171411
171739
172070
172389
172715
173048
173395
173738
174066
174389
174702
175003
175310
175633
175965
176308
176667
177027
177354
177658
177971
178296
178645
178987
179327
179641
179967
180276
180601
180922
181260
181606
181924
182244
182568
182899
183244
183581
183922
184251
184577
184909
185219
185519
185803
186079
186378
186692
187021
187352
187697
188009
188330
188660
188973
189284
189599
189930
190258
190591
190934
191250
191578
191917
192259
192605
192935
193265
193602
193931
194275
194605
194933
195267
195607
195955
196309
196636
196961
197294
197627
197950
198275
198602
198911
199219
199532
199833
200148
200470
200805
201116
201437
201760
202070
202381
202703
203032
203362
203674
203986
204290
204580
204860
205119
205370
205617
205868
206116
206358
206620
206946
207293
207633
207989
208339
208671
209003
209331
209645
209959
210281
210617
210954
211295
211623
211951
212281
212618
212941
213264
213573
213869
214149
214428
214729
215064
215405
215753
216079
216401
216718
217053
217395
217732
218064
218397
218726
219055
219384
219716
220045
220376
220694
221021
221347
221654
221956
222269
222593
222920
223230
223545
223857
224176
224491
224798
225112
225428
225744
226067
226393
226711
227044
227368
227703
228038
228366
228681
229011
229340
229661
229979
230304
230635
230957
231250
231540
231829
232150
232486
232807
233122
233441
233758
234070
234376
234688
235014
235352
235688
236025
236363
236693
237008
237326
237650
237968
238284
238628
238971
239294
239612
239944
240254
240557
240866
241181
241506
241829
242137
242444
242756
243073
243377
243675
243981
244280
244571
244865
245172
245482
245799
246115
246426
246718
247014
247311
247603
247901
248226
248569
248899
249221
249569
249907
250240
250573
250884
251195
251525
251870
252211
252561
252914
253241
253560
253875
254178
254482
254790
255105
255426
255748
256070
256378
256692
257012
257328
257626
257931
258248
258548
258854
259168
259491
259821
260132
260428
260719
261001
261311
261643
261962
262265
262578
262892
263206
263524
263834
264146
264443
264740
265042
265352
265662
265978
266261
266548
266840
267127
267412
267698
267986
268281
268589
268897
269212
269507
269810
270108
270400
270696
271002
271328
271664
272003
272344
272677
272984
273282
273583
273888
274217
274552
274885
275215
275532
275849
276162
276461
276760
277068
277385
277718
278042
278369
278690
279014
279314
279619
279935
280253
280570
280886
281209
281532
281849
282161
282480
282809
283139
283439
283743
284054
284388
284706
285016
285333
285652
285982
286308
286607
286900
287185
287495
287809
288135
288473
288788
289108
289441
289770
290085
290399
290724
291054
291375
291688
291978
292258
292546
292851
293171
293502
293821
294140
294455
294775
295101
295436
295773
296089
296390
296679
296988
297312
297633
297930
298214
298495
298779
299075
299364
299653
299959
300268
300585
300890
301200
301513
301802
302090
302384
302692
303004
303317
303620
303929
304227
304530
304839
305139
305423
305706
305995
306295
306588
306899
307232
307539
307843
308154
308469
308773
309058
309332
309605
309877
310168
310481
310806
311132
311473
311813
312150
312477
312780
313082
313388
313689
314002
314329
314662
314996
315317
315641
315966
316254
316536
316831
317128
317431
317749
318069
318378
318702
319024
319336
319630
319930
320244
320555
320871
321174
321463
321745
322031
322325
322611
322901
323204
323524
323858
324187
324526
324858
325194
325525
325839
326141
326444
326750
327058
327374
327677
327989
328302
328616
328931
329225
329512
329807
330108
330420
330740
331051
331366
331690
332008
332337
332669
333004
333348
333686
334021
334345
334658
334971
335295
335628
335962
336308
336643
336961
337262
337561
337849
338149
338473
338803
339127
339461
339800
340138
340465
340792
341108
341427
341742
342037
342315
342593
342884
343184
343511
343841
344160
344481
344817
345151
345473
345789
346091
346384
346667
346942
347229
347538
347868
348189
348514
348824
349132
349450
349755
350063
350364
350660
350946
351227
351504
351765
352024
352280
352544
352835
353148
353441
353745
354050
354350
354635
354913
355196
355473
355760
356058
356362
356676
356988
357298
357607
357919
358240
358564
358867
359164
359449
359727
359992
360265
360566
360887
361197
361502
361813
362111
362422
362710
362996
363277
363561
363849
364140
364424
364690
364952
365208
365475
365758
366044
366331
366624
366924
367207
367490
367767
368040
368322
368611
368909
369196
369472
369747
370026
370307
370594
370876
371155
371434
371709
372000
372305
372623
372948
373277
373581
373878
374174
374470
374763
375047
375339
375630
375930
376234
376543
376858
377168
377485
377800
378101
378386
378665
378943
379233
379532
379844
380162
380492
380823
381128
381428
381732
382047
382360
382672
382998
383331
383666
383985
384281
384574
384864
385169
385475
385795
386106
386414
386717
387030
387352
387681
388008
388342
388663
388987
389307
389634
389959
390285
390607
390924
391209
391488
391768
392025
392290
392566
392863
393176
393481
393774
394057
394336
394605
394875
395142
395396
395637
395882
396125
396364
396605
396844
397087
397320
397553
397780
398010
398237
398459
398680
398895
399114
399338
399572
399811
400053
400310
400556
400810
401062
401326
401601
401874
402140
402397
402651
402911
403178
403435
403684
403930
404163
404400
404646
404902
405164
405427
405698
405976
406246
406517
406784
407030
407272
407498
407727
407953
408178
408407
408647
408895
409154
409411
409697
409978
410246
410515
410774
411035
411296
411551
411803
412054
412308
412569
412835
413099
413369
413639
413901
414168
414430
414685
414934
415172
415422
415668
415913
416163
416410
416654
416901
417147
417396
417661
417922
418181
418434
418681
418922
419165
419414
419658
419902
420153
420406
420662
420920
421178
421439
421688
421947
422197
422442
422693
422935
423173
423406
423640
423876
424115
424365
424613
424857
425105
425357
425611
425871
426148
426425
426703
426978
427249
427530
427798
428072
428355
428628
428899
429181
429455
429725
429998
430258
430532
430808
431081
431358
431622
431890
432162
432433
432715
432998
433280
433565
433863
434144
434424
434712
435013
435318
435632
435937
436231
436529
436811
437097
437389
437685
437982
438283
438595
438908
439211
439514
439821
440116
440415
440719
441022
441316
441611
441908
442201
442484
442760
443028
443300
443578
443862
444144
444432
444729
445030
445335
445630
445929
446211
446489
446766
447047
447329
447621
447919
448225
448530
448832
449134
449421
449706
449998
450302
450595
450892
451198
451513
451828
452151
452475
452789
453092
453404
453713
454001
454287
454585
454859
455137
455417
455691
455945
456189
456438
456701
456977
457263
457549
457837
458133
458425
458700
458961
459223
459486
459754
460027
460288
460561
460827
461103
461391
461684
461981
462267
462547
462828
463121
463413
463701
463994
464295
464579
464865
465145
465412
465673
465932
466208
466498
466782
467081
467391
467688
467979
468273
468552
468822
469091
469351
469624
469904
470190
470461
470746
471033
471314
471605
471899
472196
472481
472773
473065
473354
473633
473917
474203
474477
474745
475009
475264
475531
475800
476083
476377
476672
476960
477241
477529
477809
478089
478372
478651
478930
479209
479489
479768
480045
480324
480611
480900
481190
481479
481764
482041
482310
482582
482854
483118
483380
483658
483951
484244
484545
484849
485145
485439
485716
485992
486254
486521
486789
487053
487321
487585
487860
488147
488432
488720
489012
489304
489587
489866
490130
490398
490668
490949
491228
491507
491796
492079
492368
492657
492939
493218
493495
493764
494035
494318
494615
494895
495179
495459
495748
496042
496349
496642
496937
497217
497498
497774
498037
498310
498588
498874
499170
499467
499752
500052
500355
500653
500948
501237
501514
501787
502062
502337
502596
502854
503108
503361
503621
503891
504167
504440
504706
504965
505235
505496
505752
506012
506265
506514
506769
507028
507285
507536
507787
508041
508285
508527
508768
509003
509237
509473
509713
509963
510214
510473
510731
510977
511225
511473
511719
511971
512223
512479
512727
512981
513247
513523
513799
514076
514365
514659
514947
515250
515559
515863
516164
516475
516777
517078
517380
517674
517950
518233
518515
518778
519039
519294
519559
519834
520121
520405
520696
520989
521278
521588
521906
522226
522541
522852
523164
523486
523784
524073
524354
524632
524922
525200
525466
525726
525981
526237
526486
526732
526986
527228
527482
527738
527996
528267
528533
528811
529092
529375
529641
529907
530171
530426
530689
530945
531206
531479
531748
532014
532277
532532
532790
533059
533341
533620
533899
534165
534433
534705
534970
535230
535488
535757
536046
536345
536629
536915
537210
537492
537772
538056
538334
538615
538893
539171
539435
539707
539978
540240
540501
540763
541034
541319
541604
541885
542166
542453
542727
543001
543272
543534
543804
544082
544379
544684
544992
545287
545581
545853
546122
546389
546663
546942
547226
547526
547839
548147
548436
548725
549010
549282
549548
549805
550055
550304
550559
550837
551117
551392
551663
551938
552213
552493
552781
553065
553337
553611
553885
554157
554429
554696
554963
555231
555496
555770
556053
556331
556611
556894
557185
557475
557764
558057
558345
558647
558949
559262
559562
559854
560140
560434
560737
561044
561357
561661
561954
562231
562496
562751
562988
563219
563450
563686
563928
564174
564428
564681
564942
565205
565466
565714
565958
566192
566428
566665
566912
567166
567419
567690
567969
568257
568544
568842
569142
569422
569706
569984
570258
570530
570793
571052
571303
571559
571813
572074
572347
572615
572893
573169
573459
573746
574027
574301
574576
574847
575110
575379
575639
575895
576154
576415
576682
576954
577213
577474
577731
577985
578241
578494
578748
579004
579259
579510
579762
580019
580278
580536
580794
581056
581317
581573
581837
582091
582342
582593
582837
583083
583334
583582
583828
584070
584312
584553
584796
585044
585294
585551
585802
586056
586310
586564
586809
587053
587291
587525
587759
587999
588242
588490
588751
589006
589253
589496
589746
589993
590236
590478
590719
590969
591225
591477
591729
591984
592236
592490
592740
593004
593266
593525
593781
594042
594311
594589
594875
595170
595450
595722
595984
596243
596502
596757
597011
597271
597534
597791
598062
598340
598610
598877
599123
599376
599622
599862
600103
600333
600569
600809
601041
601285
601528
601767
601999
602234
602468
602707
602951
603200
603454
603726
604009
604301
604606
604908
605200
605489
605774
606062
606343
606621
606896
607172
607450
607730
607994
608254
608521
608782
609052
609333
609613
609897
610166
610432
610690
610948
611188
611432
611669
611912
612149
612398
612651
612903
613158
613408
613659
613907
614156
614403
614650
614888
615127
615366
615611
615857
616089
616332
616571
616813
617075
617340
617610
617888
618165
618436
618701
618963
619219
619471
619721
619977
620229
620477
620733
620988
621242
621503
621765
622039
622323
622594
622869
623139
623409
623674
623935
624191
624447
624700
624954
625204
625462
625727
625981
626238
626501
626765
627029
627301
627572
627837
628109
628377
628642
628904
629150
629354
629605
629840
630082
630316
630561
630810
631055
631306
631561
631822
632111
632400
632702
632984
633264
633545
633828
634119
634392
634665
634937
635218
635501
635777
636040
636299
636561
636817
637076
637345
637606
637869
638125
638387
638660
638927
639183
639440
639698
639954
640207
640457
640705
640949
641198
641456
641729
642001
642279
642555
642841
643142
643440
643733
644016
644293
644572
644841
645117
645382
645649
645917
646193
646476
646752
647037
647314
647590
647860
648124
648382
648628
648871
649106
649338
649571
649808
