132
363
603
838
1080
1324
1560
1791
2039
2287
2525
2756
2991
3224
3461
3701
3935
4163
4397
4642
4877
5105
5336
5570
5802
6034
6268
6503
6734
6971
7208
7442
7674
7906
8140
8377
8619
8849
9081
9319
9565
9802
10031
10263
10500
10739
10979
11208
11438
11671
11913
12144
12375
12606
12841
13070
13307
13543
13777
14007
14247
14485
14720
14949
15182
15412
15648
15889
16117
16345
16578
16824
17057
17285
17515
17753
17988
18227
18460
18694
18924
19168
19401
19634
19860
20091
20318
20550
20782
21011
21235
21467
21701
21933
22159
22390
22621
22856
23094
23323
23554
23783
24024
24252
24483
24710
24939
25165
25401
25635
25864
26088
26327
26566
26801
27026
27256
27487
27720
27961
28192
28420
28652
28894
29125
29355
29585
29823
30053
30289
30520
30752
30978
31214
31450
31682
31906
32136
32364
32599
32834
33062
33287
33516
33754
33985
34213
34437
34671
34902
35137
35371
35601
35829
36067
36304
36539
36765
36995
37221
37457
37692
37921
38148
38383
38625
38858
39087
39320
39554
39787
40022
40257
40491
40720
40960
41201
41437
41666
41898
42129
42367
42610
42840
43066
43299
43543
43778
44005
44232
44465
44698
44929
45160
45389
45608
45837
46075
46309
46540
46775
47007
47245
47483
47713
47943
48178
48422
48659
48890
49124
49361
49603
49844
50076
50309
50541
50784
51019
51254
51486
51723
51955
52195
52428
52662
52892
53136
53373
53606
53835
54067
54296
54531
54770
54999
55224
55460
55701
55931
56157
56388
56622
56857
57096
57329
57561
57790
58031
58263
58494
58721
58953
59180
59413
59647
59879
60106
60342
60582
60817
61046
61278
61512
61749
61989
62220
62453
62691
62937
63169
63395
63626
63858
64093
64331
64560
64791
65020
65262
65497
65732
65963
66197
66427
66667
66905
67138
67363
67599
67837
68070
68296
68525
68755
68988
69224
69451
69677
69908
70150
70382
70612
70839
71076
71305
71540
71773
72005
72229
72465
72702
72936
73162
73394
73627
73865
74105
74341
74577
74811
75054
75288
75520
75751
75984
76215
76449
76682
76912
77138
77375
77611
77846
78072
78306
78538
78780
79021
79253
79479
79717
79959
80193
80421
80655
80888
81123
81360
81594
81823
82053
82292
82528
82762
82995
83232
83463
83699
83940
84175
84405
84642
84884
85118
85343
85576
85807
86044
86286
86517
86750
86989
87237
87478
87710
87946
88186
88429
88673
88908
89143
89382
89629
89866
90100
90338
90578
90822
91066
91305
91544
91784
92035
92273
92508
92747
92987
93226
93468
93703
93938
94173
94420
94659
94893
95127
95367
95606
95847
96087
96323
96555
96795
97033
97264
97492
97725
97952
98183
98416
98641
98865
99094
99330
99559
99784
100011
100242
100475
100709
100938
101165
101390
101623
101857
102090
102312
102538
102766
103001
103241
103468
103696
103929
104172
104402
104632
104860
105093
105322
105557
105787
106016
106240
106475
106706
106938
107164
107394
107622
107855
108093
108321
108551
108781
109025
109254
109483
109713
109948
110177
110414
110649
110882
111107
111346
111586
111822
112049
112283
112518
112757
112999
113237
113469
113709
113953
114190
114419
114655
114892
115133
115372
115602
115835
116072
116317
116552
116785
117019
117258
117498
117740
117977
118212
118447
118694
118935
119171
119402
119638
119869
120109
120344
120579
120812
121060
121302
121541
121775
122016
122250
122490
122730
122967
123197
123438
123678
123915
124144
124381
124618
124861
125105
125344
125579
125825
126070
126313
126547
126785
127024
127273
127522
127763
127999
128243
128488
128732
128965
129204
129440
129686
129931
130171
130407
130657
130905
131148
131388
131630
131871
132119
132367
132607
132844
133092
133337
133580
133815
134054
134290
134535
134783
135022
135253
135493
135738
135975
136201
136432
136664
136900
137137
137369
137596
137829
138071
138306
138539
138772
139011
139251
139491
139728
139961
140195
140438
140679
140916
141148
141379
141612
141847
142087
142317
142548
142782
143025
143260
143491
143725
143962
144203
144448
144684
144917
145153
145399
145633
145866
146099
146339
146579
146822
147061
147300
147539
147791
148030
148266
148501
148743
148978
149218
149455
149689
149920
150161
150401
150638
150871
151113
151348
151590
151833
152073
152307
152551
152795
153035
153265
153502
153739
153980
154225
154464
154702
154952
155202
155449
155689
155932
156173
156420
156664
156905
157141
157388
157630
157871
158104
158341
158574
158814
159055
159290
159520
159762
160005
160243
160475
160711
160945
161185
161429
161663
161895
162133
162379
162615
162843
163074
163310
163550
163791
164023
164256
164490
164738
164973
165206
165440
165678
165915
166154
166386
166622
166850
167091
167323
167558
167786
168020
168249
168486
168721
168954
169181
169420
169658
169893
170118
170347
170577
170811
171050
171277
171501
171729
171970
172201
172429
172657
172890
173116
173351
173585
173817
174042
174278
174517
174750
174977
175210
175441
175677
175913
176144
176374
176604
176844
177076
177308
177537
177773
178004
178241
178479
178711
178937
179173
179414
179649
179873
180103
180334
180570
180807
181037
181266
181499
181738
181971
182199
182430
182663
182896
183131
183363
183593
183821
184056
184287
184516
184741
184969
185194
185428
185665
185890
186115
186346
186587
186820
187045
187273
187505
187735
187965
188194
188420
188641
188875
189110
189339
189562
189789
190019
190252
190489
190717
190944
191178
191419
191651
191877
192108
192339
192572
192804
193033
193261
193487
193722
193955
194186
194414
194640
194867
195102
195344
195573
195798
196033
196273
196505
196731
196961
197191
197424
197660
197889
198115
198344
198582
198812
199039
199268
199501
199731
199963
200196
200424
200647
200879
201115
201344
201565
201790
202018
202248
202481
202707
202934
203159
203394
203629
203861
204087
204314
204542
204773
205008
205232
205457
205687
205923
206150
206375
206603
206837
207070
207309
207542
207776
208012
208256
208494
208732
208967
209205
209438
209680
209921
210157
210386
210626
210869
211108
211341
211578
211813
212053
212299
212533
212763
213001
213246
213481
213709
213940
214176
214410
214647
214877
215110
215344
215590
215825
216060
216294
216536
216775
217019
217256
217493
217729
217974
218212
218453
218686
218925
219158
219400
219638
219876
220106
220350
220590
220828
221059
221298
221529
221771
222009
222245
222473
222716
222958
223194
223423
223658
223891
224130
224371
224605
224834
225071
225319
225555
225785
226021
226257
226497
226739
226973
227208
227442
227686
227924
228156
228390
228628
228867
229109
229342
229577
229813
230057
230293
230527
230755
230991
231221
231458
231688
231918
232144
232382
232617
232849
233076
233308
233538
233777
234018
234253
234485
234727
234970
235206
235434
235670
235901
236137
236374
236605
236833
237062
237305
237539
237770
237996
238234
238467
238705
238940
239175
239403
239646
239886
240124
240352
240584
240815
241052
241289
241521
241749
241986
242226
242462
242691
242923
243157
243395
243631
243865
244097
244329
244566
244796
245025
245251
245480
245705
245940
246177
246408
246635
246874
247118
247352
247578
247811
248043
248281
248519
248750
248979
249212
249455
249688
249917
250153
250392
250629
250867
251105
251343
251577
251821
252063
252299
252532
252771
253007
253246
253483
253717
253949
254189
254431
254668
254897
255132
255366
255609
255852
256083
256316
256556
256797
257032
257262
257494
257725
257961
258201
258429
258657
258891
259133
259364
259592
259828
260063
260301
260541
260778
261012
261246
261492
261730
261961
262192
262427
262661
262898
263134
263368
263598
263835
264076
264312
264540
264770
265001
265237
265474
265704
265932
266166
266404
266634
266860
267090
267322
267559
267800
268030
268260
268494
268737
268970
269203
269434
269667
269899
270136
270371
270599
270825
271060
271296
271529
271755
271985
272214
272448
272689
272919
273149
273385
273631
273865
274096
274328
274567
274805
275044
275277
275512
275748
275995
276234
276472
276707
276949
277188
277432
277672
277912
278146
278390
278631
278871
279103
279339
279574
279816
280058
280295
280525
280767
281007
281245
281478
281713
281947
282186
282428
282662
282891
283128
283371
283603
283833
284064
284298
284536
284776
285005
285235
285466
285710
285942
286174
286403
286639
286868
287102
287335
287566
287788
288023
288260
288493
288716
288947
289177
289415
289654
289882
290112
290349
290593
290827
291054
291285
291519
291757
291994
292222
292452
292683
292924
293153
293386
293616
293850
294081
294320
294555
294791
295019
295261
295498
295733
295966
296202
296433
296672
296914
297149
297379
297622
297868
298109
298341
298582
298821
299067
299313
299554
299787
300034
300280
300521
300753
300989
301223
301464
301707
301944
302175
302416
302660
302900
303132
303369
303605
303848
304091
304309
304521
304695
304888
305062
305227
305424
305620
305831
306052
306264
306494
306724
306923
307116
307337
307571
307813
308051
308284
308478
308681
308908
309099
309289
309494
309693
309882
310057
310219
310369
310524
310683
310850
311033
311186
311351
311516
311678
311831
311982
312144
312303
312456
312602
312760
312926
313074
313226
313366
313513
313872
314135
314384
314639
314890
315137
315376
315621
315866
316116
316361
316604
316845
317097
317339
317579
317820
318064
318305
318549
318791
319029
319269
319521
319763
320001
320243
320487
320729
320975
321216
321451
321688
321938
322178
322412
322643
322883
323120
323359
323598
323830
324065
324309
324550
324784
325015
325250
325483
325719
325956
326189
326421
326662
326901
327138
327369
327604
327838
328079
328322
328557
328787
329028
329272
329511
329741
329974
330207
330448
330691
330922
331151
331388
331631
331864
332092
332327
332561
332798
333038
333273
333504
333739
333982
334216
334446
334678
334916
335152
335388
335622
335853
336084
336326
336567
336803
337036
337273
337511
337754
337996
338234
338468
338711
338955
339197
339431
339666
339900
340141
340385
340619
340852
341095
341343
341581
341815
342052
342290
342531
342776
343009
343241
343480
343726
343961
344190
344423
344658
344895
345137
345370
345604
345837
346082
346316
346549
346782
347023
347259
347497
347738
347974
348206
348449
348690
348928
349159
349401
349640
349884
350125
350370
350607
350856
351102
351346
351585
351831
352071
352318
352560
352799
353034
353279
353517
353757
353992
354232
354467
354710
354951
355190
355422
355668
355912
356153
356386
356626
356860
357103
357343
357577
357807
358053
358297
358534
358765
359003
359237
359479
359722
359959
360192
360435
360682
360923
361156
361390
361625
361866
362111
362346
362580
362821
363065
363304
363538
363774
364011
364255
364502
364736
364969
365211
365456
365689
365918
366150
366383
366620
366863
367094
367324
367560
367806
368039
368271
368508
368744
368982
369223
369385
369693
369928
370172
370404
370635
370865
371103
371336
371574
371808
372044
372275
372518
372760
372998
373225
373460
373692
373931
374168
374399
374626
374863
375104
375339
375566
375796
376028
376267
376505
376736
376966
377198
377439
377667
377899
378128
378362
378590
378824
379056
379291
379519
379761
379999
380237
380470
380708
380945
381189
381436
381674
381904
382148
382394
382633
382864
383101
383336
383578
383821
384060
384294
384538
384785
385028
385262
385505
385743
385988
386235
386473
386708
386952
387198
387442
387676
387916
388154
388404
388652
388893
389128
389374
389624
389867
390101
390340
390575
390821
391068
391303
391533
391777
392019
392257
392484
392720
392950
393187
393427
393660
393890
394133
394382
394619
394848
395086
395323
395566
395809
396046
396280
396520
396768
397009
397244
397483
397722
397968
398218
398457
398695
398938
399188
399431
399665
399902
400139
400386
400631
400869
401102
401347
401595
401833
402062
402302
402538
402781
403025
403261
403493
403733
403979
404220
404453
404690
404928
405170
405415
405653
405888
406127
406375
406618
406854
407093
407334
407578
407821
408062
408299
408538
408788
409029
409262
409499
409737
409981
410224
410459
410694
410933
411182
411421
411658
411893
412131
412370
412610
412848
413083
413315
413554
413791
414026
414258
414491
414722
414962
415205
415440
415668
415911
416152
416387
416614
416849
417084
417322
417564
417796
418023
418260
418506
418744
418976
419216
419458
419705
419955
420195
420434
420676
420926
421168
421402
421642
421880
422124
422370
422608
422844
423088
423338
423581
423817
424057
424295
424544
424793
425030
425266
425511
425761
426001
426234
426472
426710
426953
427200
427437
427670
427916
428162
428400
428632
428869
429104
429344
429589
429827
430060
430301
430551
430789
431022
431259
431496
431740
431989
432227
432462
432705
432956
433199
433432
433667
433903
434145
434391
434627
434864
435111
435365
435612
435855
436101
436343
436592
436842
437083
437322
437571
437819
438062
438306
438550
438790
439036
439281
439520
439756
440001
440248
440489
440724
440964
441201
441442
441687
441924
442156
442399
442644
442883
443116
443348
443583
443820
444058
444291
444521
444759
445003
445239
445470
445705
445941
446182
446425
446656
446889
447123
447365
447597
447829
448059
448292
448529
448770
449007
449241
449476
449721
449959
450194
450428
450667
450900
451140
451378
451614
451845
452088
452328
452566
452802
453045
453281
453523
453766
454003
454236
454477
454722
454959
455190
455425
455660
455901
456146
456381
456613
456853
457101
457345
457582
457822
458062
458308
458557
458796
459035
459282
459528
459768
460002
460237
460472
460712
460956
461191
461425
461671
461918
462160
462397
462638
462878
463123
463372
463614
463849
464097
464346
464590
464830
465316
465562
465806
466044
466278
466521
466762
467000
467233
467472
467710
467952
468192
468432
468666
468914
469159
469400
469635
469878
470118
470363
470605
470844
471082
471329
471573
471816
472055
472298
472535
472780
473023
473262
473496
473741
473983
474222
474455
474696
474932
475174
475416
475653
475888
476135
476379
476620
476854
477095
477333
477576
477819
478058
478290
478534
478779
479019
479255
479495
479735
479982
480229
480476
480718
480968
481216
481465
481707
481952
482195
482445
482691
482933
483174
483426
483672
483915
484153
484398
484641
484890
485131
485373
485609
485858
486096
486334
486570
486811
487048
487293
487532
487772
488008
488255
488492
488727
488962
489206
489443
489687
489929
490172
490412
490668
490914
491155
491391
491634
491878
492124
492360
492599
492839
493093
493337
493578
493819
494065
494312
494563
494804
495045
495290
495542
495783
496021
496263
496505
496748
496999
497237
497472
497713
497962
498198
498427
498660
498894
499130
499371
499600
499828
500055
500294
500522
500748
500970
501202
501427
501658
501886
502115
502337
502570
502803
503032
503255
503482
503710
503944
504181
504407
504636
504868
505109
505339
505568
505795
506027
506257
506491
506718
506944
507166
507397
507628
507856
508075
508296
508517
508742
508974
509195
509415
509636
509870
510095
510321
510542
510768
510990
511217
511448
511667
511885
512109
512340
512557
512777
512993
513218
513438
513666
513894
514118
514341
514570
514806
515035
515257
515483
515712
515945
516178
516407
516638
516863
517100
517333
517568
517794
518030
518259
518498
518734
518966
519192
519430
519666
519900
520126
520361
520593
520832
521075
521310
521544
521789
522039
522283
522520
522766
523008
523259
523512
523761
524000
524248
524500
524748
524983
525228
525469
525716
525960
526203
526441
526692
526939
527184
527421
527666
527909
528158
528401
528642
528883
529138
529381
529623
529862
530105
530345
530591
530830
531072
531310
531558
531797
532036
532275
532517
532758
533003
533242
533478
533713
533959
534192
534423
534652
534890
535126
535364
535599
535838
536071
536318
536559
536799
537037
537282
537524
537771
538012
538254
538495
538746
538990
539234
539478
539725
539976
540229
540474
540716
540966
541223
541469
541707
541950
542190
542436
542684
542921
543154
543397
543644
543884
544116
544353
544589
544833
545079
545316
545551
545791
546038
546276
546505
546737
546974
547210
547450
547685
547921
548157
548404
548643
548880
549117
549359
549604
549851
550090
550329
550567
550817
551057
551294
551530
551770
552010
552255
552494
552733
552974
553227
553468
553709
553951
554196
554442
554687
554926
555165
555406
555654
555893
556127
556364
556603
556846
557090
557328
557563
557802
558052
558293
558529
558763
559001
559241
559482
559717
559948
560182
560429
560666
560898
561132
561371
561612
561852
562086
562321
562557
562804
563040
563275
563510
563748
563986
564228
564464
564698
564929
565172
565408
565642
565874
566111
566343
566584
566823
567060
567291
567535
567774
568011
568241
568480
568712
568950
569186
569426
569658
569902
570143
570386
570620
570862
571102
571348
571591
571833
572067
572312
572556
572800
573034
573273
573507
573753
573993
574230
574464
574709
574952
575195
575429
575671
575904
576151
576394
576632
576864
577113
577359
577601
577836
578076
578313
578558
578802
579043
579277
579526
579774
580019
580254
580497
580735
580980
581224
581466
581701
581945
582186
582427
582662
582899
583134
583378
583621
583860
584093
584339
584585
584826
585058
585300
585537
585782
586026
586266
586499
586743
586985
587225
587459
587699
587935
588181
588427
588670
588905
589153
589400
589644
589883
590128
590364
590608
590854
591095
591330
591577
591825
592068
592302
592545
592786
593032
593274
593514
593749
593997
594241
594480
594712
594948
595182
595423
595659
595894
596128
596372
596611
596851
597087
597327
597561
597805
598048
598287
598520
598767
599005
599242
599475
599714
599950
600194
600438
600680
600917
601169
601417
601662
601903
602151
602395
602643
602889
603132
603372
603623
603866
604105
604347
604591
604838
605086
605326
605567
605811
606063
606308
606543
606783
607022
607270
607515
607751
607987
608228
608474
608716
608950
609187
609424
609668
609916
610153
610387
610627
610874
611111
611343
611578
611814
612053
612292
612525
612757
612991
613237
613472
613705
613939
614179
614417
614656
614892
615130
615362
615536
615842
616079
616309
616541
616771
617008
617246
617482
617709
617948
618188
618426
618653
618887
619118
619357
619595
619829
620059
620300
620543
620779
620984
621244
621483
621729
621976
622215
622449
622692
622941
623183
623417
623658
623895
624141
624391
624632
624868
625114
625367
625615
625855
626102
626345
626596
626846
627091
627331
627585
627834
628078
628316
628559
628799
629044
629283
629519
629755
630000
630238
630476
630708
630944
631175
631413
631648
631883
632111
632349
632585
632820
633047
633280
633508
633748
633988
634220
634449
634690
634935
635176
635407
635647
635886
636133
636381
636625
636859
637108
637356
637601
637837
638081
638322
638570
638816
639062
639302
639554
639800
640048
640291
640538
640783
641034
641279
641521
641764
642018
642263
642505
642743
642984
643230
643478
643717
643954
644195
644447
644687
644924
645165
645407
645650
645897
646139
646378
646619
646869
647109
647344
647583
647824
648068
648313
648553
648794
649037
649289
649533
649769
